0, -0.03781975439598817
0.00024999999999991696, -0.03768043600713877
0.0005000000000000004, -0.03749338246763534
0.0007499999999999729, -0.037272822053547205
0.0009999999999999454, -0.037032983040942824
0.0012499999999999734, -0.036788093705892866
0.0015000000000000013, -0.036552382324464894
0.0017499999999999738, -0.03634007717272869
0.0020000000000000018, -0.03616540652675404
0.0022499999999999187, -0.036042598662610725
0.0024999999999999467, -0.035985881856365864
0.0027499999999999747, -0.036009436722562516
0.0030000000000000027, -0.036117868072277126
0.003249999999999975, -0.03629466969383932
0.003500000000000003, -0.03652051784974253
0.00374999999999992, -0.0367760888024784
0.0040000000000000036, -0.03704205881454037
0.004249999999999976, -0.03729910414842097
0.0044999999999999485, -0.037527901066612745
0.0047499999999999765, -0.037709125831606904
0.0050000000000000044, -0.03782345470589776
0.005249999999999977, -0.03785156395197742
0.005500000000000005, -0.0377745723620837
0.005749999999999922, -0.037589965197958985
0.00599999999999995, -0.03731601648450189
0.006249999999999978, -0.03697234312619502
0.006500000000000006, -0.03657856202752141
0.006749999999999978, -0.03615429009296367
0.007000000000000006, -0.03571914422700351
0.007249999999999923, -0.03529274133412352
0.007500000000000007, -0.03489469831880765
0.007749999999999979, -0.03454463208553671
0.007999999999999952, -0.03426215953879508
0.00824999999999998, -0.034065543256660114
0.008500000000000008, -0.033953774117947866
0.00874999999999998, -0.033911499638684894
0.009000000000000008, -0.03392302570792616
0.009249999999999925, -0.03397265821472795
0.009499999999999953, -0.03404470304814522
0.009749999999999981, -0.03412346609723338
0.010000000000000009, -0.03419325325104783
0.010249999999999981, -0.03423837039864264
0.01050000000000001, -0.03424312342907454
0.010749999999999926, -0.034191818231398496
0.01100000000000001, -0.034070951154403506
0.011249999999999982, -0.033882348600115186
0.011499999999999955, -0.033634385711393655
0.011749999999999983, -0.03333546221195283
0.01200000000000001, -0.0329939778255075
0.012249999999999983, -0.03261833227576938
0.012500000000000011, -0.03221692528645459
0.012749999999999928, -0.03179815658127527
0.012999999999999956, -0.03137042588394623
0.013249999999999984, -0.03094213291818093
0.013500000000000012, -0.030521677393239077
0.013749999999999984, -0.030115874372250495
0.014000000000000012, -0.029725593205869316
0.01424999999999993, -0.029350309017976084
0.014500000000000013, -0.02898949693245001
0.014749999999999985, -0.028642632073173413
0.014999999999999958, -0.028309189564026394
0.015249999999999986, -0.027988644528889495
0.015500000000000014, -0.02768047209164326
0.015749999999999986, -0.027384147376168233
0.016000000000000014, -0.0270991455063454
0.01624999999999993, -0.02682493055285695
0.01649999999999996, -0.0265592387289999
0.016749999999999987, -0.026296216817803142
0.017000000000000015, -0.02602956460003014
0.017249999999999988, -0.025752981856444368
0.017500000000000016, -0.025460168367810176
0.017749999999999932, -0.025144823914891035
0.018000000000000016, -0.024800648278450854
0.01824999999999999, -0.02442134123925266
0.01849999999999996, -0.02400060257806169
0.01874999999999999, -0.023532132075639645
0.019000000000000017, -0.023009823421769937
0.01924999999999999, -0.022433930827834292
0.019500000000000017, -0.021812347784903707
0.019749999999999934, -0.021153420138251722
0.019999999999999962, -0.02046549373315054
0.02024999999999999, -0.019756914414875038
0.020500000000000018, -0.019036028028696528
0.02074999999999999, -0.01831118041988855
0.02100000000000002, -0.017590717433725533
0.021249999999999936, -0.016882984915479682
0.02150000000000002, -0.01619632871042498
0.02174999999999999, -0.015538327537388152
0.021999999999999964, -0.014906501337292877
0.022249999999999992, -0.014291294167540158
0.02250000000000002, -0.013683002774064423
0.022749999999999992, -0.013071923902800986
0.02300000000000002, -0.012448354299684272
0.023249999999999937, -0.011802590710649152
0.023499999999999965, -0.011124929881629164
0.023749999999999993, -0.010405668558559622
0.02400000000000002, -0.00963510348737584
0.024249999999999994, -0.008803531414011356
0.024500000000000022, -0.007903487674322474
0.02474999999999994, -0.006942154281441404
0.025000000000000022, -0.005932602472216164
0.025249999999999995, -0.004887919509843908
0.025499999999999967, -0.0038211926575195676
0.025749999999999995, -0.002745509178442518
0.026000000000000023, -0.0016739563358085796
0.026249999999999996, -0.0006196213928149064
0.026500000000000024, 0.0004044083873417925
0.02674999999999994, 0.0013850457414634754
0.02699999999999997, 0.002309203678104499
0.027249999999999996, 0.003167756596073268
0.027500000000000024, 0.003965523670239168
0.027749999999999997, 0.004710390883742033
0.028000000000000025, 0.005410244219722138
0.028249999999999942, 0.00607296966131976
0.028500000000000025, 0.006706453191674733
0.028749999999999998, 0.007318580793927776
0.02899999999999997, 0.007917238451218278
0.029249999999999998, 0.00851031214668696
0.029500000000000026, 0.009105687863473655
0.02975, 0.009711229088847695
0.030000000000000027, 0.010331993056473365
0.030249999999999944, 0.010967540924198715
0.03049999999999997, 0.011616795930451396
0.03075, 0.0122786813136595
0.031000000000000028, 0.012952120312250237
0.03125, 0.013636036164651255
0.03150000000000003, 0.01432935210929065
0.031749999999999945, 0.015030991384595627
0.03200000000000003, 0.015739877228993837
0.03225, 0.016454932880912043
0.03249999999999997, 0.017175043268276458
0.03275, 0.017897971995984197
0.03300000000000003, 0.018620209051511516
0.03325, 0.019338175498007093
0.03350000000000003, 0.02004829239862005
0.03374999999999995, 0.020746980816500393
0.033999999999999975, 0.021430661814796803
0.03425, 0.022095756456660176
0.03450000000000003, 0.022738685805238745
0.03475, 0.023355870923682076
0.03500000000000003, 0.023943732875139734
0.03524999999999995, 0.02449958322272261
0.03550000000000003, 0.02503151728850206
0.035750000000000004, 0.02555479828686691
0.035999999999999976, 0.026084818726792136
0.036250000000000004, 0.026636971117253605
0.03650000000000003, 0.027226647967223183
0.036750000000000005, 0.027869241785678067
0.03700000000000003, 0.0285801450815919
0.03724999999999995, 0.029374750363939217
0.03749999999999998, 0.030268450141694547
0.037750000000000006, 0.031276636923831536
0.038000000000000034, 0.03241061229009379
0.038250000000000006, 0.03365663507024408
0.038500000000000034, 0.03499149173912652
0.03874999999999995, 0.03639195101327397
0.039000000000000035, 0.03783478160922149
0.03925000000000001, 0.03929675224350415
0.039500000000000035, 0.04075463163265569
0.03975000000000001, 0.04218518849321118
0.03999999999999998, 0.04356519154170524
0.040250000000000064, 0.044871409494672054
0.040500000000000036, 0.04608061243495243
0.04075000000000001, 0.04717583786762525
0.04099999999999998, 0.04816082886187978
0.041250000000000064, 0.04904359841143657
0.04150000000000004, 0.0498321595100184
0.04175000000000001, 0.0505345251513476
0.04199999999999998, 0.051158708329146485
0.042250000000000065, 0.051712722037136505
0.04250000000000004, 0.05220457926903954
0.04275000000000001, 0.05264229301857837
0.04299999999999998, 0.053033876279475756
0.043250000000000066, 0.053387343803446896
0.04350000000000004, 0.05371088903554844
0.04375000000000001, 0.054013035527273434
0.043999999999999984, 0.05430234249498955
0.04425000000000007, 0.05458736915506668
0.04450000000000004, 0.05487667472387159
0.04475000000000001, 0.05517881841777239
0.044999999999999984, 0.055502359453138084
0.04525000000000007, 0.055855857046336777
0.04550000000000004, 0.05624787041373569
0.04575000000000001, 0.05668695877170471
0.045999999999999985, 0.0571813990691763
0.04625000000000007, 0.057732056136214904
0.04650000000000004, 0.058331832425327246
0.046750000000000014, 0.058973237892901764
0.046999999999999986, 0.05964878249532557
0.04725000000000007, 0.06035097618898533
0.04750000000000004, 0.06107232893026948
0.047750000000000015, 0.06180535067556514
0.04799999999999999, 0.06254255138125986
0.04825000000000007, 0.06327644100374163
0.04850000000000004, 0.06399952949939758
0.048750000000000016, 0.06470492165138264
0.04899999999999999, 0.06539238831846816
0.04925000000000007, 0.06606588579389738
0.049500000000000044, 0.06672943512796126
0.049750000000000016, 0.06738705737094985
0.04999999999999999, 0.06804277357315369
0.05025000000000007, 0.06870060478486373
0.050500000000000045, 0.06936457205637003
0.05075000000000002, 0.07003869643796401
0.05099999999999999, 0.07072699897993528
0.05125000000000007, 0.07143350073257526
0.051500000000000046, 0.07216078459269326
0.05175000000000002, 0.07290319108483567
0.05199999999999999, 0.07365212958644918
0.052250000000000074, 0.07439900593998505
0.05250000000000005, 0.07513522598789235
0.05275000000000002, 0.07585219557262235
0.05299999999999999, 0.07654132053662499
0.053250000000000075, 0.0771940067223511
0.05350000000000005, 0.07780165997225064
0.05375000000000002, 0.07835568612877397
0.05399999999999999, 0.07884749327020879
0.054250000000000076, 0.07927307690646312
0.05450000000000005, 0.07964266198096137
0.05475000000000002, 0.07996922416581898
0.05499999999999999, 0.08026573913315493
0.05525000000000008, 0.08054518255508558
0.05550000000000005, 0.0808205301037268
0.05575000000000002, 0.08110475745119583
0.055999999999999994, 0.08141084026960987
0.05625000000000008, 0.08175175423108483
0.05650000000000005, 0.08214047500773836
0.05675000000000002, 0.0825898911160512
0.056999999999999995, 0.08310554535048764
0.05725000000000008, 0.08368017499101521
0.05750000000000005, 0.08430523132229872
0.057750000000000024, 0.08497216562900212
0.057999999999999996, 0.08567242919579199
0.05825000000000008, 0.08639747330733138
0.05850000000000005, 0.08713874924828602
0.058750000000000024, 0.08788770830332027
0.059, 0.08863580175709895
0.05925000000000008, 0.08937448089428646
0.05950000000000005, 0.09009544574368622
0.059750000000000025, 0.09079628486468971
0.06, 0.09148056988545461
0.06025000000000008, 0.09215214008741368
0.060500000000000054, 0.0928148347519997
0.060750000000000026, 0.09347249316064543
0.061, 0.0941289545947841
0.06125000000000008, 0.09478805833584847
0.061500000000000055, 0.09545364366527087
0.06175000000000003, 0.09612954986448496
0.062, 0.09681961621492308
0.06225000000000008, 0.09752707808556726
0.06250000000000006, 0.09824889604958154
0.06275000000000003, 0.09897831049696437
0.063, 0.09970851301731898
0.06325000000000008, 0.100432695200249
0.06350000000000006, 0.10114404863535897
0.06375000000000003, 0.10183576491225166
0.064, 0.10250103562053159
0.06425000000000008, 0.10313305234980197
0.06450000000000006, 0.10372500668966689
0.06475000000000003, 0.10427009022972955
0.065, 0.10476306519401701
0.06525000000000009, 0.10520712626587159
0.06550000000000006, 0.10560828591258842
0.06575000000000003, 0.10597255858652677
0.066, 0.10630595874004767
0.06625000000000009, 0.1066145008255126
0.06650000000000006, 0.10690419929528172
0.06675000000000003, 0.10718106860171739
0.067, 0.10745112319717975
0.06725000000000009, 0.10772037753402897
0.06750000000000006, 0.10799484487340649
0.06775000000000003, 0.10827921399581708
0.068, 0.10857431446518229
0.06825000000000009, 0.10888027679024592
0.06850000000000006, 0.10919723147975224
0.06875000000000003, 0.10952530904244417
0.069, 0.10986463998706553
0.06925000000000009, 0.11021535482236056
0.06950000000000006, 0.11057758405707308
0.06975000000000003, 0.11095145819994601
0.07, 0.11133710775972538
0.07025000000000009, 0.11173462983184468
0.07050000000000006, 0.11214175163000695
0.07075000000000004, 0.11255230016325868
0.07100000000000001, 0.11295973894426448
0.07125000000000009, 0.11335753148568806
0.07150000000000006, 0.11373914130019269
0.07175000000000004, 0.11409803190044254
0.07200000000000001, 0.11442766679910177
0.07225000000000009, 0.11472150950883453
0.07250000000000006, 0.11497302354230277
0.07275000000000004, 0.11517567241217241
0.07300000000000001, 0.11532326549612337
0.07325000000000009, 0.11541702565112644
0.07350000000000007, 0.1154653003468944
0.07375000000000004, 0.11547672511623874
0.07400000000000001, 0.11545993549196787
0.0742500000000001, 0.11542356700689149
0.07450000000000007, 0.11537625519381933
0.07475000000000004, 0.11532663558556022
0.07500000000000001, 0.11528334371492566
0.0752500000000001, 0.11525501511472402
0.07550000000000007, 0.1152502853177646
0.07575000000000004, 0.11527767306367531
0.07600000000000001, 0.1153445701147291
0.0762500000000001, 0.11545773756264843
0.07650000000000007, 0.11562392957911438
0.07675000000000004, 0.11584990033580578
0.07700000000000001, 0.11614240400440368
0.0772500000000001, 0.1165081947565878
0.07750000000000007, 0.11695402676403832
0.07775000000000004, 0.11748665419843585
0.07800000000000001, 0.11811283123145966
0.0782500000000001, 0.11883931203479037
0.07850000000000007, 0.11966956271437068
0.07875000000000004, 0.12059050493915757
0.07900000000000001, 0.12158386824506984
0.0792500000000001, 0.12263138032037002
0.07950000000000007, 0.123714768853318
0.07975000000000004, 0.12481576153217677
0.08000000000000002, 0.1259160860452062
0.0802500000000001, 0.12699747008066797
0.08050000000000007, 0.12804164132682283
0.08075000000000004, 0.129030327471932
0.08100000000000002, 0.1299452614825305
0.0812500000000001, 0.130771764693423
0.08150000000000007, 0.1315049854328203
0.08175000000000004, 0.13214173914483363
0.08200000000000002, 0.13267884127357288
0.0822500000000001, 0.1331131072631484
0.08250000000000007, 0.13344135255767142
0.08275000000000005, 0.1336603926012514
0.08300000000000002, 0.13376704283799867
0.0832500000000001, 0.13375811871202448
0.08350000000000007, 0.13363043566743826
0.08375000000000005, 0.13338101828375803
0.08400000000000002, 0.13301953257217347
0.0842500000000001, 0.13257529260382617
0.08450000000000008, 0.13207930891401398
0.08475000000000005, 0.13156259203803522
0.08500000000000002, 0.13105615251118463
0.0852500000000001, 0.13059100086876274
0.08550000000000008, 0.13019814764606386
0.08575000000000005, 0.12990860337838717
0.08600000000000002, 0.12975337860102876
0.0862500000000001, 0.12976348384928604
0.08650000000000008, 0.12996825686942381
0.08675000000000005, 0.1303644428414743
0.08700000000000002, 0.13091916140730753
0.0872500000000001, 0.1315984545205815
0.08750000000000008, 0.132368364134952
0.08775000000000005, 0.13319493220407708
0.08800000000000002, 0.1340442006816116
0.0882500000000001, 0.13488221152121316
0.08850000000000008, 0.13567500667653798
0.08875000000000005, 0.13638862810124275
0.08900000000000002, 0.1369891177489837
0.08925000000000011, 0.13744603339504602
0.08950000000000008, 0.13776048667397145
0.08975000000000005, 0.1379502491943283
0.09000000000000002, 0.13803324306723797
0.09025000000000011, 0.13802739040381917
0.09050000000000008, 0.13795061331519465
0.09075000000000005, 0.13782083391248223
0.09100000000000003, 0.13765597430680376
0.09125000000000011, 0.13747395660927886
0.09150000000000008, 0.13729270293102758
0.09175000000000005, 0.13713013538317043
0.09200000000000003, 0.1370012364636377
0.09225000000000011, 0.13690712142827355
0.09250000000000008, 0.13684482027039158
0.09275000000000005, 0.1368113624074363
0.09300000000000003, 0.1368037772568531
0.09325000000000011, 0.1368190942360865
0.09350000000000008, 0.13685434276258235
0.09375000000000006, 0.13690655225378334
0.09400000000000003, 0.13697275212713622
0.09425000000000011, 0.1370499718000855
0.09450000000000008, 0.13713523898504265
0.09475000000000006, 0.13722481149861387
0.09500000000000003, 0.13731296439541119
0.09525000000000011, 0.13739365789453561
0.09550000000000008, 0.13746085221508642
0.09575000000000006, 0.1375085075761655
0.09600000000000003, 0.13753058419687303
0.09625000000000011, 0.13752104229630957
0.09650000000000009, 0.13747384209357527
0.09675000000000006, 0.13738294380777027
0.09700000000000003, 0.13724230765799605
0.09725000000000011, 0.13704601025583152
0.09750000000000009, 0.13679418995614467
0.09775000000000006, 0.13649588594784223
0.09800000000000003, 0.13616084802928707
0.09825000000000012, 0.1357988259988403
0.09850000000000009, 0.13541956965486435
0.09875000000000006, 0.13503282879572032
0.09900000000000003, 0.1346483532197702
0.09925000000000012, 0.13427589272537643
0.09950000000000009, 0.13392519711090056
0.09975000000000006, 0.1336060161747037
0.10000000000000003, 0.13332786963239052
0.10025000000000012, 0.13309618781480337
0.10050000000000009, 0.1329128855981776
0.10075000000000006, 0.13277976338554787
0.10100000000000003, 0.1326986215799475
0.10125000000000012, 0.1326712605844116
0.10150000000000009, 0.1326994808019748
0.10175000000000006, 0.13278508263567224
0.10200000000000004, 0.1329298664885381
0.10225000000000012, 0.13313563276360663
0.10250000000000009, 0.133404181863912
0.10275000000000006, 0.13373593041078413
0.10300000000000004, 0.13411972826313612
0.10325000000000012, 0.1345386660470882
0.10350000000000009, 0.13497579235214197
0.10375000000000006, 0.13541415576779636
0.10400000000000004, 0.13583680488355165
0.10425000000000012, 0.13622678828890677
0.10450000000000009, 0.13656715457336288
0.10475000000000007, 0.1368409523264198
0.10500000000000004, 0.137031230137576
0.10525000000000012, 0.13712103659633224
0.1055000000000001, 0.137098056637325
0.10575000000000007, 0.136970485706144
0.10600000000000004, 0.13675218912441434
0.10625000000000012, 0.1364570324077281
0.1065000000000001, 0.1360988810716779
0.10675000000000007, 0.13569160063185626
0.10700000000000004, 0.1352490566038549
0.10725000000000012, 0.13478511450326636
0.1075000000000001, 0.13431363984568367
0.10775000000000007, 0.13384849814669897
0.10800000000000004, 0.13340354031361024
0.10825000000000012, 0.13298796459961126
0.1085000000000001, 0.13259969461807897
0.10875000000000007, 0.13223497953272556
0.10900000000000004, 0.13189006850726548
0.10925000000000012, 0.13156121070541138
0.1095000000000001, 0.13124465529087503
0.10975000000000007, 0.13093665142737176
0.11000000000000004, 0.13063344827861245
0.11025000000000013, 0.13033129500831198
0.1105000000000001, 0.1300264407801821
0.11075000000000007, 0.1297151777197505
0.11100000000000004, 0.12939574414198063
0.11125000000000013, 0.12906907894228326
0.1115000000000001, 0.12873631995021384
0.11175000000000007, 0.12839860499532785
0.11200000000000004, 0.1280570719071794
0.11225000000000013, 0.12771285851532577
0.1125000000000001, 0.1273671026493206
0.11275000000000007, 0.12702094213872028
0.11300000000000004, 0.12667551481307937
0.11325000000000013, 0.12633195850195422
0.1135000000000001, 0.12599134824667013
0.11375000000000007, 0.12565373782924416
0.11400000000000005, 0.12531835082986742
0.11425000000000013, 0.1249843867666045
0.1145000000000001, 0.1246510451575209
0.11475000000000007, 0.12431752552068209
0.11500000000000005, 0.12398302737415445
0.11525000000000013, 0.12364675023600258
0.1155000000000001, 0.12330789362429195
0.11575000000000008, 0.12296565705708895
0.11600000000000005, 0.12261924005245817
0.11625000000000013, 0.12226807177627963
0.1165000000000001, 0.12191337140208347
0.11675000000000008, 0.12155719818460486
0.11700000000000005, 0.12120161622202641
0.11725000000000013, 0.1208486896125307
0.1175000000000001, 0.12050048245430034
0.11775000000000008, 0.12015905884551836
0.11800000000000005, 0.11982648288436648
0.11825000000000013, 0.11950481866902773
0.1185000000000001, 0.11919613029768472
0.11875000000000008, 0.11890248186852004
0.11900000000000005, 0.11862440822750964
0.11925000000000013, 0.11835609895874777
0.1195000000000001, 0.11809009815432692
0.11975000000000008, 0.11781894990345032
0.12000000000000005, 0.11753519829532255
0.12025000000000013, 0.11723138741914774
0.12050000000000011, 0.11690006136413045
0.12075000000000008, 0.11653376421947392
0.12100000000000005, 0.11612504007438273
0.12125000000000014, 0.11566643301806057
0.12150000000000011, 0.11515050819821804
0.12175000000000008, 0.11457478184282399
0.12200000000000005, 0.11394806583868711
0.12225000000000014, 0.113280739823018
0.12250000000000011, 0.11258318343302509
0.12275000000000008, 0.11186577630591898
0.12300000000000005, 0.11113889807890898
0.12325000000000014, 0.11041292838920569
0.12350000000000011, 0.10969824687401797
0.12375000000000008, 0.10900523317055599
0.12400000000000005, 0.1083442669160295
0.12425000000000014, 0.10772562728847923
0.12450000000000011, 0.10715560196889662
0.12475000000000008, 0.1066352431472346
0.12500000000000006, 0.10616524800103422
0.12525000000000003, 0.1057463137078325
0.1255000000000001, 0.10537913744517136
0.12575000000000008, 0.10506441639058828
0.12600000000000006, 0.10480284772162296
0.12625000000000014, 0.1045951286158151
0.1265000000000001, 0.10444195625070352
0.12675000000000008, 0.10434402780382745
0.12700000000000006, 0.10430153981195822
0.12725000000000003, 0.10430721531202147
0.1275000000000001, 0.10434803319860064
0.12775000000000009, 0.10441082512432676
0.12800000000000006, 0.10448242274183395
0.12825000000000014, 0.10454965770375457
0.12850000000000011, 0.10459936166272232
0.1287500000000001, 0.10461836627136956
0.12900000000000006, 0.10459350318232996
0.12925000000000003, 0.1045116040482359
0.12950000000000012, 0.10435950052172105
0.1297500000000001, 0.1041251543542896
0.13000000000000006, 0.10380475029216374
0.13025000000000014, 0.10339810871799182
0.13050000000000012, 0.10290506612032768
0.1307500000000001, 0.10232545898772649
0.13100000000000006, 0.10165912380874387
0.13125000000000003, 0.10090589707193409
0.13150000000000012, 0.10006561526585234
0.1317500000000001, 0.09913811487905333
0.13200000000000006, 0.0981232324000918
0.13225000000000015, 0.09702080431929705
0.13250000000000012, 0.09583306252750656
0.1327500000000001, 0.09457156169169645
0.13300000000000006, 0.09325012420501366
0.13325000000000004, 0.09188257246060605
0.13350000000000012, 0.09048272885162056
0.1337500000000001, 0.08906441577120461
0.13400000000000006, 0.08764145561250558
0.13425000000000015, 0.08622767076867133
0.13450000000000012, 0.08483688363284791
0.1347500000000001, 0.08348291659818319
0.13500000000000006, 0.08217956483404087
0.13525000000000004, 0.08093572753950484
0.13550000000000012, 0.07974978186223947
0.1357500000000001, 0.0786187414644739
0.13600000000000007, 0.07753962000843773
0.13625000000000015, 0.07650943115636144
0.13650000000000012, 0.07552518857047419
0.1367500000000001, 0.07458390591300557
0.13700000000000007, 0.07368259684618561
0.13725000000000004, 0.07281827503224303
0.13750000000000012, 0.0719879541334083
0.1377500000000001, 0.07118866128229762
0.13800000000000007, 0.07041789649491648
0.13825000000000015, 0.06967374621893718
0.13850000000000012, 0.06895433341229351
0.1387500000000001, 0.06825778103292102
0.13900000000000007, 0.06758221203875392
0.13925000000000004, 0.06692574938772511
0.13950000000000012, 0.0662865160377697
0.1397500000000001, 0.06566263494682145
0.14000000000000007, 0.06505222907281549
0.14025000000000015, 0.06445342137368426
0.14050000000000012, 0.06386413400224988
0.1407500000000001, 0.06327953075035886
0.14100000000000007, 0.06269277132399154
0.14125000000000004, 0.062096970321391165
0.14150000000000013, 0.06148524234079966
0.1417500000000001, 0.06085070198045894
0.14200000000000007, 0.0601864638386127
0.14225000000000015, 0.05948564251350108
0.14250000000000013, 0.05874135260336777
0.1427500000000001, 0.05794670870645424
0.14300000000000007, 0.05709482542100286
0.14325000000000004, 0.05618018771659017
0.14350000000000013, 0.05520659789511351
0.1437500000000001, 0.05418173696462869
0.14400000000000007, 0.05311329868949377
0.14425000000000016, 0.052008976834067244
0.14450000000000013, 0.05087646516270539
0.1447500000000001, 0.049723457439768026
0.14500000000000007, 0.04855764742961144
0.14525000000000005, 0.04738672889659368
0.14550000000000013, 0.04621839560507279
0.1457500000000001, 0.04506034131389747
0.14600000000000007, 0.04392004668985372
0.14625000000000016, 0.0428042144137839
0.14650000000000013, 0.041719369668647754
0.1467500000000001, 0.04067203763740723
0.14700000000000008, 0.03966874350302341
0.14725000000000005, 0.038716012448456905
0.14750000000000013, 0.03782036965667013
0.1477500000000001, 0.0369883403106237
0.14800000000000008, 0.0362264495932787
0.14825000000000016, 0.03554122268759663
0.14850000000000013, 0.03493910722528559
0.1487500000000001, 0.034415574290496576
0.14900000000000008, 0.03394386143195538
0.14925000000000005, 0.0334945191304068
0.14950000000000013, 0.03303809786659562
0.1497500000000001, 0.032545148121267076
0.15000000000000008, 0.03198622037516685
0.15025000000000016, 0.03133186510903929
0.15050000000000013, 0.030552632803630075
0.1507500000000001, 0.02961907393968355
0.15100000000000008, 0.02850173899794539
0.15125000000000005, 0.02717224377307792
0.15150000000000013, 0.02563546229169189
0.1517500000000001, 0.023935269748922128
0.15200000000000008, 0.022117764384609995
0.15225000000000016, 0.0202290444385973
0.15250000000000014, 0.01831520815072496
0.1527500000000001, 0.01642235376083434
0.15300000000000008, 0.014596579508767249
0.15325000000000005, 0.01288398363436416
0.15350000000000014, 0.011330664377467325
0.1537500000000001, 0.009982719977917665
0.15400000000000008, 0.008882726932727625
0.15425000000000016, 0.008028640157543343
0.15450000000000014, 0.007387776162369075
0.1547500000000001, 0.006926850861632694
0.15500000000000008, 0.006612580169762516
0.15525000000000005, 0.006411680001185971
0.15550000000000014, 0.0062908662703318186
0.1557500000000001, 0.00621685489162882
0.15600000000000008, 0.0061563617795044046
0.15625000000000017, 0.006076102848386888
0.15650000000000014, 0.0059427940127037004
0.1567500000000001, 0.005726542524242539
0.15700000000000008, 0.005419019748927223
0.15725000000000006, 0.005020344509975683
0.15750000000000014, 0.004530655370878822
0.1577500000000001, 0.003950090895126213
0.15800000000000008, 0.003278789646207425
0.15825000000000017, 0.002516890187613363
0.15850000000000014, 0.001664531082833598
0.1587500000000001, 0.0007218508953577008
0.15900000000000009, -0.0003110118113238691
0.15925000000000006, -0.0014339181211728835
0.15950000000000014, -0.0026437804961654265
0.15975000000000011, -0.003927410262772213
0.1600000000000001, -0.00526945749717278
0.16025000000000017, -0.006654572275545778
0.16050000000000014, -0.008067404674071188
0.16075000000000012, -0.009492604768928548
0.1610000000000001, -0.01091482263629695
0.16125000000000006, -0.012318708352355934
0.16150000000000014, -0.013688911993285036
0.16175000000000012, -0.01501008363526335
0.1620000000000001, -0.016266942618133662
0.16225000000000017, -0.017452105423294118
0.16250000000000014, -0.01857327241300455
0.16275000000000012, -0.019639842122663342
0.1630000000000001, -0.020661213087669772
0.16325000000000006, -0.02164678384342178
0.16350000000000015, -0.022605952925319084
0.16375000000000012, -0.02354811886876007
0.1640000000000001, -0.02448268020914357
0.16425000000000017, -0.025419035481868413
0.16450000000000015, -0.02636658322233343
0.16475000000000012, -0.02733449006458688
0.1650000000000001, -0.028325447027026218
0.16525000000000006, -0.029334963398227387
0.16550000000000015, -0.030358174868207133
0.16575000000000012, -0.031390217126981756
0.1660000000000001, -0.03242622586456845
0.16625000000000018, -0.03346133677098306
0.16650000000000015, -0.03449068553624279
0.16675000000000012, -0.03550940785036483
0.1670000000000001, -0.03651263940336458
0.16725000000000007, -0.03749551588526012
0.16750000000000015, -0.03845305277621236
0.16775000000000012, -0.039378857646558796
0.1680000000000001, -0.04026562474119855
0.16825000000000018, -0.04110603285687464
0.16850000000000015, -0.04189276079033055
0.16875000000000012, -0.04261848733830975
0.1690000000000001, -0.04327589129755349
0.16925000000000007, -0.04385765146480791
0.16950000000000015, -0.04435644663681426
0.16975000000000012, -0.044764955610316015
0.1700000000000001, -0.04507585718205753
0.17025000000000018, -0.04528446388810137
0.17050000000000015, -0.04540176152439246
0.17075000000000012, -0.045444510255121084
0.1710000000000001, -0.04542947929550545
0.17125000000000007, -0.04537343786076553
0.17150000000000015, -0.04529315516612087
0.17175000000000012, -0.045205400426789666
0.1720000000000001, -0.04512694285799057
0.17225000000000018, -0.045074551674944896
0.17250000000000015, -0.04506499609286996
0.17275000000000013, -0.04511504373630171
0.1730000000000001, -0.04523644570796348
0.17325000000000007, -0.0454248220486031
0.17350000000000015, -0.04567255682397642
0.17375000000000013, -0.04597203409983486
0.1740000000000001, -0.04631563794193427
0.17425000000000018, -0.04669575241602608
0.17450000000000015, -0.04710476158786614
0.17475000000000013, -0.04753504952320764
0.1750000000000001, -0.04797900028780333
0.17525000000000007, -0.04842899794740818
0.17550000000000016, -0.04887744055387788
0.17575000000000013, -0.049318035737620836
0.1760000000000001, -0.04974685095910969
0.17625000000000018, -0.050160200832319646
0.17650000000000016, -0.05055439997122502
0.17675000000000013, -0.05092576298979967
0.1770000000000001, -0.0512706045020197
0.17725000000000007, -0.05158523912185853
0.17750000000000016, -0.05186598146329224
0.17775000000000013, -0.052109146140295604
0.1780000000000001, -0.05231104776684159
0.17825000000000019, -0.052468162319024625
0.17850000000000016, -0.05258101690390493
0.17875000000000013, -0.052654388044528044
0.1790000000000001, -0.05269325331145103
0.17925000000000008, -0.05270259027522828
0.17950000000000016, -0.05268737650641775
0.17975000000000013, -0.05265258957557384
0.1800000000000001, -0.0526032070532545
0.1802500000000002, -0.052544206510014124
0.18050000000000016, -0.05248056551640978
0.18075000000000013, -0.05241726164299809
0.1810000000000001, -0.05235906683148972
0.18125000000000008, -0.05230852245658468
0.18150000000000016, -0.052266803262789985
0.18175000000000013, -0.052235064261695996
0.1820000000000001, -0.05221446046489531
0.1822500000000002, -0.05220614688398051
0.18250000000000016, -0.05221127853054286
0.18275000000000013, -0.05223101041617495
0.1830000000000001, -0.05226649755246848
0.18325000000000008, -0.05231889495101516
0.18350000000000016, -0.05238935762340757
0.18375000000000014, -0.052477776266280696
0.1840000000000001, -0.05257699563136553
0.1842500000000002, -0.05267742047275403
0.18450000000000016, -0.05276945317352144
0.18475000000000014, -0.052843496116744326
0.1850000000000001, -0.05288995168549704
0.18525000000000008, -0.05289922226285704
0.18550000000000016, -0.052861710231900005
0.18575000000000014, -0.05276781797570207
0.1860000000000001, -0.05260794787733891
0.1862500000000002, -0.05237250646091551
0.18650000000000017, -0.05205831964938801
0.18675000000000014, -0.05168159827589358
0.1870000000000001, -0.05126219788874398
0.18725000000000008, -0.050819974036254045
0.18750000000000017, -0.05037478226673464
0.18775000000000014, -0.04994647812850106
0.1880000000000001, -0.04955491716986504
0.1882500000000002, -0.049219954939139665
0.18850000000000017, -0.04896144698463889
0.18875000000000014, -0.04879924885467446
0.1890000000000001, -0.048753049258946746
0.18925000000000008, -0.04882949764920852
0.18950000000000017, -0.04901306669612726
0.18975000000000014, -0.04928607154674758
0.1900000000000001, -0.04963082734811586
0.1902500000000002, -0.0500296492472776
0.19050000000000017, -0.050464852391277404
0.19075000000000014, -0.05091875192716122
0.19100000000000011, -0.05137366300197499
0.1912500000000001, -0.05181190076276376
0.19150000000000017, -0.05221578035657304
0.19175000000000014, -0.05256796544833264
0.19200000000000012, -0.05285902293887812
0.1922500000000002, -0.05308736086974131
0.19250000000000017, -0.053251723381054994
0.19275000000000014, -0.05335085461294886
0.19300000000000012, -0.053383498705555255
0.1932500000000001, -0.05334839979900474
0.19350000000000017, -0.05324430203342967
0.19375000000000014, -0.05306994954895927
0.19400000000000012, -0.052824086485726784
0.1942500000000002, -0.05250545698386233
0.19450000000000017, -0.05211421839256536
0.19475000000000015, -0.05166475145277705
0.19500000000000012, -0.051179664291892024
0.1952500000000001, -0.05068166520233808
0.19550000000000017, -0.0501934624765461
0.19575000000000015, -0.04973776440694522
0.19600000000000012, -0.04933727928596543
0.1962500000000002, -0.049014715406035414
0.19650000000000017, -0.04879278105958518
0.19675000000000015, -0.04869418453904517
0.19700000000000012, -0.04874163413684274
0.1972500000000001, -0.048950245208013055
0.19750000000000018, -0.049295485495266966
0.19775000000000015, -0.049739924346496434
0.19800000000000012, -0.050246124175225226
0.1982500000000002, -0.05077664739497845
0.19850000000000018, -0.05129405641928031
0.19875000000000015, -0.05176091366165414
0.19900000000000012, -0.05213978153562593
0.1992500000000001, -0.052393222454718114
0.19950000000000018, -0.05248379883245624
0.19975000000000015, -0.05237410217735583
0.20000000000000012, -0.052052619637023234
0.2002500000000002, -0.051581311767556315
0.20050000000000018, -0.05103508089905384
0.20075000000000015, -0.050488829361614584
0.20100000000000012, -0.05001745948533998
0.2012500000000001, -0.0496958736003279
0.20150000000000018, -0.0495989740366789
0.20175000000000015, -0.049801663124491746
0.20200000000000012, -0.05037884319386654
0.2022500000000002, -0.051405416574902496
0.20250000000000018, -0.05295542476772441
0.20275000000000015, -0.05504597235437325
0.20300000000000012, -0.05760272938601263
0.2032500000000001, -0.06054311650923028
0.20350000000000018, -0.06378455437061259
0.20375000000000015, -0.06724446361674641
0.20400000000000013, -0.07084026489421813
0.2042500000000002, -0.07448937884961548
0.20450000000000018, -0.07810922612952531
0.20475000000000015, -0.08161722738053401
0.20500000000000013, -0.08493080324922797
0.2052500000000001, -0.08797029904778464
0.20550000000000018, -0.0907162143798268
0.20575000000000015, -0.0932054982776509
0.20600000000000013, -0.09547728252785248
0.2062500000000002, -0.09757069891702752
0.20650000000000018, -0.09952487923177022
0.20675000000000016, -0.10137895525867746
0.20700000000000013, -0.10317205878434432
0.2072500000000001, -0.1049433215953659
0.20750000000000018, -0.10673187547833862
0.20775000000000016, -0.10857685221985669
0.20800000000000013, -0.11051348341286671
0.2082500000000002, -0.1125405215697941
0.20850000000000019, -0.11463680574420465
0.20875000000000016, -0.11678097350516436
0.20900000000000013, -0.11895166242173927
0.2092500000000001, -0.12112751006299538
0.20950000000000019, -0.12328715399799872
0.20975000000000016, -0.12540923179581487
0.21000000000000013, -0.12747238102551028
0.21025000000000021, -0.12945523925615054
0.2105000000000002, -0.13133644405680256
0.21075000000000016, -0.13310099729556013
0.21100000000000013, -0.13476505114372817
0.2112500000000001, -0.13635427324555538
0.2115000000000002, -0.13789433361354098
0.21175000000000016, -0.1394109022601846
0.21200000000000013, -0.14092964919798634
0.21225000000000022, -0.1424762444394463
0.2125000000000002, -0.1440763579970632
0.21275000000000016, -0.14575565988333805
0.21300000000000013, -0.1475398201107696
0.2132500000000001, -0.14945447653829858
0.2135000000000002, -0.1515070745632361
0.21375000000000016, -0.15365653418934366
0.21400000000000013, -0.1558537723273914
0.21425000000000022, -0.15804970588814937
0.2145000000000002, -0.1601952517823877
0.21475000000000016, -0.162241326920876
0.21500000000000014, -0.1641388482143853
0.2152500000000001, -0.1658387325736852
0.2155000000000002, -0.16729189690954493
0.21575000000000016, -0.16844925813273592
0.21600000000000014, -0.16926250900643325
0.21625000000000022, -0.16972728929508074
0.2165000000000002, -0.1699058999901153
0.21675000000000016, -0.16986620945141384
0.21700000000000014, -0.16967608603885243
0.2172500000000001, -0.1694033981123093
0.2175000000000002, -0.1691160140316601
0.21775000000000017, -0.16888180215678172
0.21800000000000014, -0.16876863084755245
0.21825000000000022, -0.16884436846384876
0.2185000000000002, -0.1691768833655476
0.21875000000000017, -0.16982834062004493
0.21900000000000014, -0.17075410963061932
0.2192500000000001, -0.17181477397123857
0.2195000000000002, -0.17286762661155608
0.21975000000000017, -0.17376996052122617
0.22000000000000014, -0.17437906866990183
0.22025000000000022, -0.1745522440272369
0.2205000000000002, -0.17414677956288616
0.22075000000000017, -0.17301996824650168
0.22100000000000014, -0.17102910304773777
0.2212500000000001, -0.1680314769362492
0.2215000000000002, -0.16390927871107408
0.22175000000000017, -0.15876140402519123
0.22200000000000014, -0.1527983383805429
0.22225000000000023, -0.1462314897740562
0.2225000000000002, -0.13927226620265687
0.22275000000000017, -0.13213207566327423
0.22300000000000014, -0.1250223261528336
0.22325000000000012, -0.1181544256682634
0.2235000000000002, -0.11173978220648983
0.22375000000000017, -0.10598980376444045
0.22400000000000014, -0.10111589833904233
0.22425000000000023, -0.09727575944086864
0.2245000000000002, -0.09438056467359557
0.22475000000000017, -0.09227081568058226
0.22500000000000014, -0.09078700818130025
0.22525000000000012, -0.08976963789522019
0.2255000000000002, -0.08905920054181227
0.22575000000000017, -0.08849619184054891
0.22600000000000015, -0.08792110751090032
0.22625000000000023, -0.0871744432723367
0.2265000000000002, -0.08609669484433047
0.22675000000000017, -0.0845284240915345
0.22700000000000015, -0.08233575383671043
0.22725000000000012, -0.07944893905920214
0.2275000000000002, -0.07580813177379264
0.22775000000000017, -0.07135348399526498
0.22800000000000015, -0.06602514773840129
0.22825000000000023, -0.05976327501798373
0.2285000000000002, -0.05250801784879533
0.22875000000000018, -0.04419952824561868
0.22900000000000015, -0.03477795822323637
0.22925000000000012, -0.02418345979643055
0.2295000000000002, -0.012358418252585768
0.22975000000000018, 0.0006453276207802894
0.23000000000000015, 0.014619068669876167
0.23025000000000023, 0.02934199229982193
0.2305000000000002, 0.04459328591573675
0.23075000000000018, 0.06015213692273891
0.23100000000000015, 0.07579773272594847
0.23125, 0.09130926073048418
0.2315000000000002, 0.10646590834146608
0.23175000000000018, 0.12104686296401379
0.23200000000000004, 0.1348313120032456
0.23225000000000023, 0.1476097558389471
0.2325000000000002, 0.159366208609673
0.23275000000000007, 0.17024711125114278
0.23300000000000015, 0.180403940449112
0.23325000000000012, 0.1899881728893349
0.2335000000000001, 0.1991512852575661
0.23375000000000018, 0.20804475423955981
0.23400000000000015, 0.2168200565210716
0.23425000000000012, 0.22562866878785615
0.2345000000000002, 0.23462206772566674
0.23475000000000018, 0.2439517300202585
0.23500000000000015, 0.25374949950648906
0.23525000000000001, 0.2639879691382321
0.2355000000000002, 0.2745624151415442
0.2357500000000003, 0.28536760202234657
0.23600000000000004, 0.2962982942865633
0.23625000000000024, 0.3072492564401168
0.2365000000000001, 0.3181152529889295
0.23675000000000018, 0.3287910484389238
0.23700000000000015, 0.339171407296023
0.23725000000000013, 0.3491510940661495
0.2375000000000002, 0.35862487325522574
0.23775000000000018, 0.3675237166786274
0.23800000000000016, 0.3759344384667176
0.23825000000000024, 0.3839857727841247
0.2385000000000002, 0.3918064543634374
0.23875000000000018, 0.3995252179372426
0.23900000000000005, 0.4072707982381263
0.23925000000000013, 0.4151719299986776
0.2395000000000002, 0.42335734795148294
0.23975000000000007, 0.43195578682912883
0.24000000000000016, 0.4410959813642039
0.24025000000000024, 0.45090654228295746
0.2405000000000001, 0.46148156459884326
0.24075000000000019, 0.4728336382312355
0.24100000000000016, 0.48496359269554956
0.24125000000000013, 0.4978722575071979
0.24150000000000021, 0.5115604621815946
0.2417500000000002, 0.5260290362341529
0.24200000000000016, 0.541278809180286
0.24225000000000024, 0.557310610535408
0.24250000000000022, 0.5741252698149331
0.2427500000000003, 0.5917236165342736
0.24300000000000005, 0.6101033438732248
0.24325000000000013, 0.6291279477153664
0.2435000000000001, 0.6484791450280261
0.2437500000000002, 0.6678257245204562
0.24400000000000016, 0.6868364749019089
0.24425000000000013, 0.7051801848816361
0.24450000000000022, 0.7225256431688909
0.2447500000000002, 0.7385416384729251
0.24500000000000016, 0.7528969595029911
0.24525000000000002, 0.7652603949683412
0.24550000000000022, 0.7753007335782274
0.2457500000000002, 0.7827178907568395
0.24600000000000005, 0.787699652706038
0.24625000000000025, 0.7908210159006248
0.24650000000000022, 0.7926676338290259
0.24675000000000008, 0.7938251599796669
0.24700000000000016, 0.7948792478409745
0.24725000000000014, 0.796415550901374
0.2475000000000001, 0.799019722649291
0.2477500000000002, 0.8032774165731524
0.24800000000000016, 0.809774286161383
0.24825000000000014, 0.8190959849024098
0.24850000000000022, 0.8317239935539666
0.2487500000000002, 0.8473514596015799
0.24900000000000017, 0.8653108537268992
0.24925000000000003, 0.8849327818716686
0.24950000000000022, 0.9055478499776306
0.2497500000000003, 0.9264866639865288
0.25000000000000006, 0.9470798298401037
0.25025000000000014, 0.9666579534801016
0.2505000000000001, 0.9845516408482651
0.2507500000000002, 1.0000914978863389
0.25099999999999995, 1.0126081305360652
0.25125000000000003, 1.0216142840509437
0.2515, 1.0273580276035963
0.2517500000000001, 1.0302729686966225
0.25199999999999984, 1.0307927148380012
0.2522499999999999, 1.029350873535711
0.2524999999999999, 1.026381052297732
0.25275, 1.0223168586320428
0.25299999999999984, 1.0175919000466227
0.2532499999999998, 1.0126397840494503
0.2534999999999998, 1.0078941181485053
0.25374999999999964, 1.0037877906881405
0.2539999999999997, 1.0006035060379352
0.2542499999999997, 0.9982900004851365
0.25449999999999967, 0.9967509941163657
0.25474999999999953, 0.995890207018246
0.2549999999999996, 0.9956113592773996
0.2552499999999996, 0.9958181709804492
0.25549999999999956, 0.9964143622140174
0.2557499999999994, 0.9973036530647268
0.2559999999999995, 0.9983897636191994
0.2562499999999995, 0.9995764139640582
0.25649999999999945, 1.0007678047761357
0.2567499999999993, 1.0018862313931856
0.2569999999999994, 1.002877159978338
0.25724999999999937, 1.0036875720174012
0.25749999999999934, 1.0042644489961814
0.2577499999999992, 1.0045547724004869
0.2579999999999993, 1.0045055237161247
0.25824999999999926, 1.0040636844289024
0.25849999999999923, 1.0031762360246272
0.2587499999999991, 1.001790159989107
0.2589999999999992, 0.9998524378081486
0.25924999999999915, 0.9973165563836575
0.2594999999999991, 0.994229691345726
0.259749999999999, 0.9907093169680516
0.25999999999999907, 0.9868746136090547
0.26024999999999904, 0.9828447616271565
0.260499999999999, 0.9787389413807763
0.26074999999999887, 0.9746763332283346
0.26099999999999896, 0.9707761175282517
0.2612499999999989, 0.9671574746389482
0.2614999999999989, 0.9639395849188437
0.26174999999999876, 0.9612416287263592
0.26199999999999884, 0.9591460536564687
0.2622499999999988, 0.957475700555809
0.2624999999999988, 0.9559415419593651
0.26274999999999865, 0.9542541120692312
0.26299999999999873, 0.9521239450875019
0.2632499999999987, 0.9492615752162714
0.2634999999999987, 0.945377536657634
0.26374999999999854, 0.9401823636136839
0.2639999999999986, 0.9333865902865155
0.2642499999999986, 0.924700750878223
0.26449999999999857, 0.9138353803396013
0.26474999999999843, 0.90063088288366
0.2649999999999985, 0.88541946162021
0.2652499999999985, 0.8686497147861703
0.26549999999999846, 0.8507702406184587
0.2657499999999983, 0.8322296373539935
0.2659999999999984, 0.8134765032296936
0.2662499999999984, 0.7949594364824768
0.26649999999999835, 0.7771270353492619
0.2667499999999982, 0.7604278980669663
0.2669999999999983, 0.7453106228725093
0.26724999999999827, 0.7322221624952534
0.26749999999999824, 0.7213431967595412
0.2677499999999981, 0.7122965026920804
0.2679999999999982, 0.7046346770440131
0.26824999999999816, 0.6979103165664795
0.26849999999999813, 0.6916760180106216
0.268749999999998, 0.6854843781275808
0.2689999999999981, 0.6788879936684982
0.26924999999999805, 0.6714394613845149
0.269499999999998, 0.6626913780267731
0.2697499999999979, 0.6521963403464135
0.26999999999999796, 0.6395170929059846
0.27024999999999794, 0.6245549305720881
0.2704999999999979, 0.6076210593337295
0.27074999999999777, 0.5890512690283403
0.27099999999999785, 0.5691813494933502
0.2712499999999978, 0.5483470905661898
0.2714999999999978, 0.5268842820842896
0.27174999999999766, 0.5051287138850808
0.27199999999999774, 0.48341617580599383
0.2722499999999977, 0.462082457684458
0.2724999999999977, 0.44146334935790454
0.27274999999999755, 0.4218773554842383
0.27299999999999763, 0.40341367297902364
0.2732499999999976, 0.385998869599967
0.2734999999999976, 0.36955605913496337
0.27374999999999744, 0.35400835537190645
0.2739999999999975, 0.3392788720986921
0.2742499999999975, 0.32529072310321405
0.27449999999999747, 0.31196702217336725
0.27474999999999733, 0.29923088309704626
0.2749999999999974, 0.28700541966214566
0.2752499999999974, 0.27521374565656087
0.27549999999999736, 0.26378698451506555
0.2757499999999972, 0.2527091746797292
0.2759999999999973, 0.24198581857385681
0.2762499999999973, 0.23162247998057772
0.27649999999999725, 0.22162472268302125
0.2767499999999971, 0.21199811046431716
0.2769999999999972, 0.20274820710759478
0.27724999999999717, 0.19388057639598522
0.27749999999999714, 0.18540078211261646
0.277749999999997, 0.17731438804061916
0.2779999999999971, 0.1696269566878632
0.27824999999999706, 0.16232097852776173
0.27849999999999714, 0.15529697619567084
0.2787499999999969, 0.14843727760849612
0.278999999999997, 0.14162421068313868
0.27924999999999695, 0.1347401033365041
0.27949999999999703, 0.12766728348549394
0.2797499999999968, 0.12028807904701244
0.27999999999999686, 0.11248481793796294
0.28024999999999683, 0.10413982807524791
0.2804999999999969, 0.09513543737577246
0.2807499999999968, 0.08535439981848114
0.28099999999999675, 0.07473430321765306
0.2812499999999967, 0.06332104242573466
0.2814999999999966, 0.05117321269443176
0.28174999999999667, 0.03834940927544794
0.28199999999999664, 0.024908227420487705
0.2822499999999966, 0.010908262381255085
0.2824999999999965, -0.0035918905905449883
0.28274999999999656, -0.01853363624320803
0.28299999999999653, -0.03385837932503044
0.2832499999999965, -0.04950752458430774
0.28349999999999637, -0.06542030736466486
0.28374999999999645, -0.08147143510949029
0.2839999999999964, -0.09746173052378726
0.2842499999999964, -0.1131879647774694
0.28449999999999626, -0.12844690904045342
0.28474999999999634, -0.1430353344826525
0.2849999999999963, -0.15675001227398422
0.2852499999999963, -0.16938771358436222
0.28549999999999615, -0.18074520958370188
0.28574999999999623, -0.19061927144191904
0.2859999999999962, -0.19880667032892818
0.2862499999999962, -0.20512472445702912
0.28649999999999604, -0.2096424136442807
0.2867499999999961, -0.2125973733090496
0.2869999999999961, -0.214230346558963
0.28724999999999606, -0.21478207650164638
0.2874999999999959, -0.21449330624472607
0.287749999999996, -0.21360477889582752
0.287999999999996, -0.21235723756257752
0.28824999999999595, -0.2109914253526015
0.2884999999999958, -0.20974808537352585
0.2887499999999959, -0.20886796073297598
0.28899999999999587, -0.20855414417337226
0.28924999999999584, -0.20877703498297961
0.2894999999999957, -0.2094182333667649
0.2897499999999958, -0.2103591631921704
0.28999999999999576, -0.2114812483266415
0.29024999999999573, -0.21266591263762136
0.2904999999999956, -0.21379457999255225
0.2907499999999957, -0.21474867425888
0.29099999999999565, -0.21540961930404734
0.2912499999999956, -0.21565883899549831
0.2914999999999955, -0.21537776412339937
0.29174999999999557, -0.21448433142880585
0.29199999999999554, -0.21301818922908433
0.2922499999999955, -0.21104432003730578
0.2924999999999954, -0.20862770636653938
0.29274999999999546, -0.2058333307298561
0.29299999999999543, -0.2027261756403247
0.2932499999999954, -0.19937122361101567
0.29349999999999526, -0.19583345715499956
0.29374999999999535, -0.19217785878534466
0.2939999999999953, -0.18846941101512238
0.2942499999999953, -0.18477288875044184
0.29449999999999515, -0.18113135608172914
0.29474999999999524, -0.1775474312157681
0.2949999999999952, -0.17401931673027127
0.2952499999999952, -0.1705452152029534
0.29549999999999504, -0.16712332921152795
0.29574999999999513, -0.16375186133370834
0.2959999999999951, -0.16042901414720845
0.2962499999999951, -0.15715299022974305
0.29649999999999493, -0.15392199215902425
0.296749999999995, -0.15073422251276725
0.296999999999995, -0.14758855836996831
0.29724999999999496, -0.14450186283072552
0.2974999999999948, -0.14151047632089897
0.2977499999999949, -0.13865171262195153
0.2979999999999949, -0.13596288551534608
0.29824999999999485, -0.13348130878254638
0.2984999999999947, -0.13124429620501488
0.2987499999999948, -0.129289161564214
0.29899999999999477, -0.1276532186416075
0.29924999999999474, -0.12637378121865828
0.2994999999999946, -0.12548816307682875
0.2997499999999947, -0.1250251253902297
0.29999999999999466, -0.12491651520749736
0.30024999999999463, -0.12503282587640951
0.3004999999999945, -0.12524357955216425
0.3007499999999946, -0.12541829838995744
0.30099999999999455, -0.12542650454498805
0.3012499999999945, -0.1251377201724515
0.3014999999999944, -0.12442146742754501
0.30174999999999447, -0.1231472684654662
0.30199999999999444, -0.12118464544141272
0.3022499999999944, -0.11840312051058044
0.3024999999999943, -0.11470528813793157
0.30274999999999436, -0.11018509224801853
0.30299999999999433, -0.10500513561536096
0.3032499999999943, -0.09932810971948847
0.30349999999999416, -0.09331670603992936
0.30374999999999425, -0.08713361605621328
0.3039999999999942, -0.08094153124786674
0.3042499999999942, -0.0749031430944207
0.30449999999999405, -0.06918114307540302
0.30474999999999414, -0.06393822267034288
0.3049999999999941, -0.059337050292277205
0.3052499999999941, -0.05548788666500659
0.30549999999999394, -0.05233695084705969
0.305749999999994, -0.04979845245990511
0.305999999999994, -0.0477866011250101
0.30624999999999397, -0.046215606463843706
0.30649999999999383, -0.044999678097874085
0.3067499999999939, -0.04405302564856983
0.3069999999999939, -0.043289858737398657
0.307249999999994, -0.04262438698583004
0.3074999999999937, -0.04197082001533037
0.3077499999999938, -0.0412437981655569
0.3079999999999938, -0.040395223159195304
0.30824999999999386, -0.039442497512810704
0.3084999999999936, -0.03840967209088131
0.3087499999999937, -0.03732079775788444
0.30899999999999367, -0.03619992537829697
0.30924999999999375, -0.03507110581659578
0.3094999999999936, -0.03395838993725819
0.3097499999999936, -0.032885828604760636
0.30999999999999356, -0.03187747268358132
0.3102499999999934, -0.030957373038196234
0.3104999999999935, -0.030148901388819205
0.3107499999999935, -0.029459114082896587
0.31099999999999345, -0.028878356348826184
0.3112499999999933, -0.02839621510723145
0.3114999999999934, -0.028002277278735832
0.31174999999999337, -0.027686129783962343
0.31199999999999334, -0.027437359543533102
0.3122499999999932, -0.02724555347807378
0.3124999999999933, -0.027100298508204723
0.31274999999999326, -0.026991181554551602
0.31299999999999323, -0.02690778953773698
0.3132499999999931, -0.026840304597887332
0.3134999999999932, -0.026785160610212078
0.31374999999999315, -0.02674252887130013
0.3139999999999931, -0.026712630926389647
0.314249999999993, -0.02669568832071878
0.31449999999999306, -0.026691922599526574
0.31474999999999304, -0.026701555308052072
0.314999999999993, -0.026724807991532984
0.31524999999999287, -0.026761902195208798
0.31549999999999295, -0.02681305946431678
0.3157499999999929, -0.026878501344097305
0.3159999999999929, -0.02695747044897967
0.31624999999999276, -0.027043904040727096
0.31649999999999284, -0.027129950482184917
0.3167499999999928, -0.027207756763985902
0.3169999999999928, -0.0272694698767606
0.31724999999999265, -0.027307236811139113
0.31749999999999273, -0.02731320455775421
0.3177499999999927, -0.02727952010723511
0.3179999999999927, -0.027198330450214137
0.31824999999999254, -0.02706178257732228
0.3184999999999926, -0.02686202749590194
0.3187499999999926, -0.026596053414161602
0.31899999999999257, -0.026275070396091227
0.31924999999999243, -0.025912889026138863
0.3194999999999925, -0.025523319888749896
0.3197499999999925, -0.025120173568369264
0.31999999999999246, -0.024717260649444128
0.3202499999999923, -0.024328391716419873
0.3204999999999924, -0.023967377353742325
0.3207499999999924, -0.023648028145857314
0.32099999999999235, -0.02338415467721111
0.3212499999999922, -0.023189438921699335
0.3214999999999923, -0.02306821858096919
0.32174999999999226, -0.023009325131160274
0.32199999999999224, -0.02300012905943838
0.3222499999999921, -0.023028000852972852
0.3224999999999922, -0.023080310998931264
0.32274999999999215, -0.02314442998448163
0.3229999999999921, -0.023207728296791075
0.323249999999992, -0.02325757642302806
0.32349999999999207, -0.023281344850360153
0.32374999999999204, -0.023266404065954926
0.323999999999992, -0.023200450934565353
0.3242499999999919, -0.02307827738119439
0.32449999999999196, -0.022901548976442143
0.32474999999999193, -0.02267221337160974
0.3249999999999919, -0.022392218217996085
0.32524999999999177, -0.02206351116690275
0.32549999999999185, -0.02168803986962997
0.3257499999999918, -0.02126775197747799
0.3259999999999918, -0.020804595141747484
0.32624999999999166, -0.020300517013738695
0.32649999999999174, -0.019757465244752304
0.3267499999999917, -0.01917862980129259
0.3269999999999917, -0.01857931574703553
0.32724999999999155, -0.01798166485123298
0.32749999999999163, -0.017407895929307138
0.3277499999999916, -0.016880227796677527
0.3279999999999916, -0.016420879268768562
0.32824999999999144, -0.01605206916100066
0.3284999999999915, -0.01579601628879468
0.3287499999999915, -0.015674939467574145
0.32899999999999147, -0.01571105751275992
0.3292499999999913, -0.015926589239773303
0.3294999999999914, -0.016335831758751418
0.3297499999999914, -0.01691284874286003
0.32999999999999136, -0.01761896206640179
0.3302499999999912, -0.018415488539765157
0.3304999999999913, -0.019263744973334607
0.3307499999999913, -0.020125048177497717
0.33099999999999125, -0.020960714962639404
0.3312499999999911, -0.02173206213914769
0.3314999999999912, -0.02240040651740749
0.33174999999999116, -0.02292706490780594
0.33199999999999114, -0.023273375881132985
0.332249999999991, -0.023416469008085805
0.3324999999999911, -0.02337710606875687
0.33274999999999105, -0.02318352155943426
0.332999999999991, -0.022863949976402065
0.3332499999999909, -0.02244662581594703
0.33349999999999097, -0.02195978357435502
0.33374999999999094, -0.021431657747911448
0.3339999999999909, -0.02089048283290218
0.3342499999999908, -0.02036449332561352
0.33449999999999086, -0.01988192372233044
0.33474999999999083, -0.01947081243644666
0.3349999999999909, -0.01914707720579356
0.33524999999999067, -0.018907641286984855
0.33549999999999075, -0.018747769515655044
0.3357499999999907, -0.018662726727439072
0.3359999999999908, -0.018647777757973216
0.33624999999999056, -0.018698187442891534
0.33649999999999064, -0.018809220617830302
0.3367499999999906, -0.018976142118424022
0.3369999999999907, -0.019194216780308082
0.33724999999999045, -0.019458709439118316
0.33749999999999053, -0.019764769565996154
0.3377499999999905, -0.020105268205556026
0.33799999999999036, -0.020470988656080102
0.33824999999999045, -0.02085263707874052
0.3384999999999904, -0.021240919634712085
0.3387499999999904, -0.02162654248516782
0.33899999999999025, -0.022000211791279423
0.33924999999999034, -0.022352633714221692
0.3394999999999903, -0.022674514415167213
0.3397499999999903, -0.02295656005528901
0.33999999999999014, -0.023189476795760555
0.3402499999999902, -0.023365071364936263
0.3404999999999902, -0.02348513091632176
0.34074999999999017, -0.023556756726873296
0.34099999999999003, -0.023587099500681052
0.3412499999999901, -0.023583309941833885
0.3414999999999901, -0.023552538754421093
0.34174999999999006, -0.023501936642533305
0.3419999999999899, -0.023438654310259377
0.34224999999999, -0.02336984246168905
0.34249999999999, -0.023302651800912955
0.34274999999998995, -0.023244233032018613
0.3429999999999898, -0.02320047178585627
0.3432499999999899, -0.02317123014076028
0.34349999999998987, -0.023154579321820634
0.34374999999998984, -0.02314859025929561
0.3439999999999897, -0.023151333883446146
0.3442499999999898, -0.02316088112453052
0.34449999999998976, -0.023175302912809226
0.34474999999998973, -0.02319267017854143
0.3449999999999896, -0.02321105385198674
0.3452499999999897, -0.023228524863404765
0.34549999999998965, -0.02324315544489375
0.3457499999999896, -0.023253638871674642
0.3459999999999895, -0.023260282029017088
0.34624999999998957, -0.02326365049179291
0.34649999999998954, -0.023264309834874375
0.3467499999999895, -0.023262825633134643
0.3469999999999894, -0.023259763461444205
0.34724999999998946, -0.02325568889467622
0.34749999999998943, -0.023251167507702952
0.3477499999999894, -0.02324676487539623
0.34799999999998926, -0.023243046572627435
0.34824999999998935, -0.023240571720451797
0.3484999999999893, -0.02323955622682705
0.3487499999999893, -0.023239707894008088
0.34899999999998915, -0.023240693492245335
0.34924999999998924, -0.02324217979179144
0.3494999999999892, -0.023243833562898164
0.3497499999999892, -0.023245321575816824
0.34999999999998904, -0.02324631060080007
0.3502499999999891, -0.023246467408099214
0.3504999999999891, -0.02324545876796469
0.35074999999998907, -0.023242951450650473
0.35099999999998893, -0.023238643555858918
0.351249999999989, -0.02323279734041961
0.351499999999989, -0.023226163966186597
0.35174999999998896, -0.02321951077728146
0.3519999999999888, -0.023213605117824443
0.3522499999999889, -0.023209214331936234
0.3524999999999889, -0.023207105763737523
0.35274999999998885, -0.023208046757349887
0.3529999999999887, -0.02321280465689224
0.3532499999999888, -0.023222146806487043
0.35349999999998877, -0.0232368405502541
0.35374999999998874, -0.023257397817042502
0.3539999999999886, -0.023282173702845466
0.3542499999999887, -0.0233084402241146
0.35449999999998866, -0.023333461234115394
0.35474999999998863, -0.02335450058611288
0.3549999999999885, -0.02336882213337166
0.3552499999999886, -0.023373689729158986
0.35549999999998855, -0.023366367226738127
0.3557499999999885, -0.023344118479375453
0.3559999999999884, -0.023304207340336447
0.35624999999998846, -0.023243897662886592
0.35649999999998844, -0.0231623775688643
0.3567499999999884, -0.02306742709536813
0.35699999999998827, -0.022969223379419645
0.35724999999998835, -0.022877943663837552
0.3574999999999883, -0.02280376519143923
0.3577499999999883, -0.02275686520504161
0.35799999999998816, -0.022747420947464736
0.35824999999998824, -0.022785609661524653
0.3584999999999882, -0.022881608590038738
0.3587499999999882, -0.023045594975827033
0.35899999999998805, -0.023287721902641056
0.35924999999998813, -0.023610075130086727
0.3594999999999881, -0.023995019198264966
0.3597499999999881, -0.024421961190430164
0.35999999999998794, -0.024870308189838042
0.360249999999988, -0.02531946727974166
0.360499999999988, -0.025748845543396737
0.36074999999998797, -0.026137850064056778
0.36099999999998783, -0.026465887924977505
0.3612499999999879, -0.026712366209411975
0.3614999999999879, -0.02685669200061591
0.36174999999998786, -0.026878620860403935
0.3619999999999877, -0.02677400705880295
0.3622499999999878, -0.026561226638996516
0.3624999999999878, -0.026260334301773103
0.36274999999998775, -0.02589138474792474
0.3629999999999876, -0.025474432678241676
0.3632499999999877, -0.025029532793514164
0.36349999999998767, -0.024576739794531566
0.36374999999998775, -0.024136108382085464
0.3639999999999875, -0.023727693256966553
0.3642499999999876, -0.02337154911996464
0.36449999999998756, -0.0230868526963528
0.36474999999998764, -0.022878318933512
0.3649999999999874, -0.022738811126985503
0.3652499999999875, -0.02266084311373273
0.36549999999998745, -0.022636928730710437
0.3657499999999873, -0.022659581814875818
0.3659999999999873, -0.022721316203185626
0.36624999999998736, -0.02281464573259795
0.36649999999998734, -0.022932084240069983
0.3667499999999872, -0.023066145562558926
0.3669999999999873, -0.02320934353702242
0.36724999999998725, -0.02335419169988473
0.3674999999999872, -0.0234932012214486
0.3677499999999871, -0.023618882151995813
0.36799999999998717, -0.023723744535113056
0.36824999999998714, -0.02380029841439102
0.3684999999999871, -0.023841053833418613
0.368749999999987, -0.023838520835783417
0.36899999999998706, -0.02378520946507523
0.36924999999998703, -0.023673629764882964
0.369499999999987, -0.023496291778795975
0.36974999999998687, -0.023245705550402285
0.36999999999998695, -0.022918766304536486
0.3702499999999869, -0.022530733562763583
0.3704999999999869, -0.022101673389553156
0.37074999999998676, -0.021651651865803423
0.37099999999998684, -0.02120073507240816
0.3712499999999868, -0.020768989090263812
0.3714999999999868, -0.020376480000266373
0.37174999999998665, -0.020043273883311397
0.37199999999998673, -0.019789436820295325
0.3722499999999867, -0.019635034892113268
0.3724999999999867, -0.019600088400425264
0.37274999999998654, -0.01969339905913703
0.3729999999999866, -0.01989795092419211
0.3732499999999866, -0.020193109351792415
0.37349999999998656, -0.020558239698139857
0.3737499999999864, -0.020972707319435013
0.3739999999999865, -0.021415877571881126
0.3742499999999865, -0.021867115811678772
0.37449999999998645, -0.02230578739502942
0.3747499999999863, -0.022711257678134977
0.3749999999999864, -0.023062892017198244
0.37524999999998637, -0.023340369630393543
0.37549999999998634, -0.023536072663386864
0.3757499999999862, -0.02365918097343167
0.3759999999999863, -0.023720027331450844
0.37624999999998626, -0.0237289445083686
0.37649999999998623, -0.023696265275109152
0.3767499999999861, -0.023632322402596273
0.3769999999999862, -0.023547448661753734
0.37724999999998615, -0.023451976823506193
0.3774999999999861, -0.023356239658777866
0.377749999999986, -0.023270569938491192
0.37799999999998607, -0.023204815147166435
0.37824999999998604, -0.02316148939925089
0.378499999999986, -0.023137424489399816
0.3787499999999859, -0.023129303885505603
0.37899999999998596, -0.023133811055462417
0.37924999999998593, -0.023147629467163977
0.3794999999999859, -0.023167442588503118
0.37974999999998577, -0.02318993388737356
0.37999999999998585, -0.023211786831669468
0.3802499999999858, -0.02322968488928323
0.3804999999999858, -0.02324031152810857
0.38074999999998566, -0.023240887106779073
0.38099999999998574, -0.023232577348434535
0.3812499999999857, -0.023218307497850255
0.3814999999999857, -0.02320101091252802
0.38174999999998555, -0.02318362094996962
0.38199999999998563, -0.023169070967678174
0.3822499999999856, -0.023160294323153696
0.3824999999999856, -0.02316022437389842
0.38274999999998544, -0.023171794477415464
0.3829999999999855, -0.02319793799120662
0.3832499999999855, -0.023241588272354896
0.38349999999998546, -0.023303752442522363
0.3837499999999853, -0.023377871200275013
0.3839999999999854, -0.023455527647711527
0.3842499999999854, -0.023528304886930584
0.38449999999998535, -0.023587786020031754
0.3847499999999852, -0.023625554149111494
0.3849999999999853, -0.023633192376270262
0.38524999999998527, -0.02360228380360674
0.38549999999998524, -0.023524411533218714
0.3857499999999851, -0.023391158667205758
0.3859999999999852, -0.023194142063169387
0.38624999999998516, -0.022931276759422747
0.38649999999998513, -0.022614130213466588
0.386749999999985, -0.022256056751612796
0.3869999999999851, -0.02187041070017237
0.38724999999998505, -0.02147054638545942
0.387499999999985, -0.021069818133784057
0.3877499999999849, -0.0206815802714595
0.38799999999998497, -0.020319187124797633
0.38824999999998494, -0.019995993020110348
0.3884999999999849, -0.01972535228370953
0.3887499999999848, -0.019520339019640787
0.38899999999998486, -0.019384016743714483
0.38924999999998483, -0.019306933837891727
0.3894999999999848, -0.01927884971040994
0.38974999999998466, -0.019289523769502992
0.38999999999998475, -0.019328715423406972
0.3902499999999847, -0.019386184080358415
0.3904999999999847, -0.019451689148590745
0.39074999999998455, -0.01951499003634183
0.39099999999998464, -0.019565846151846422
0.3912499999999846, -0.01959401690333884
0.3914999999999846, -0.019590070233144186
0.39174999999998444, -0.01955581300724285
0.3919999999999845, -0.01950128446245758
0.3922499999999845, -0.019436712731743633
0.3924999999999846, -0.01937232594805538
0.39274999999998433, -0.019318352244347192
0.3929999999999844, -0.019285019753573884
0.3932499999999844, -0.019282556608688495
0.3934999999999845, -0.01932119094264717
0.3937499999999842, -0.01941115088840384
0.3939999999999843, -0.019562664578912425
0.3942499999999843, -0.019783774010584843
0.39449999999998414, -0.020067511860202725
0.3947499999999841, -0.020400607789090586
0.3949999999999842, -0.020769769764984236
0.39524999999998417, -0.02116170575562304
0.39549999999998403, -0.021563123728744138
0.3957499999999841, -0.02196073165208512
0.3959999999999841, -0.022341237493384458
0.39624999999998406, -0.022691349220379298
0.3964999999999839, -0.022997774800807225
0.396749999999984, -0.02324722227591991
0.396999999999984, -0.023430280252261237
0.39724999999998395, -0.023551836260103265
0.3974999999999838, -0.023620070479959843
0.3977499999999839, -0.023643163092341712
0.39799999999998387, -0.023629294277760504
0.39824999999998384, -0.02358664421673007
0.3984999999999837, -0.02352339308976159
0.3987499999999838, -0.0234477210773667
0.39899999999998376, -0.023367808360057474
0.39924999999998373, -0.023291835118347315
0.3994999999999836, -0.02322796033909924
0.3997499999999837, -0.023181242503709232
0.39999999999998365, -0.023150406132022905
0.4002499999999836, -0.023133402442042428
0.4004999999999835, -0.023128182651775298
0.40074999999998356, -0.023132697979226347
0.40099999999998354, -0.023144899642399963
0.4012499999999835, -0.02316273885930098
0.40149999999998337, -0.023184166847936005
0.40174999999998345, -0.023207134826308984
0.4019999999999834, -0.023229594012425636
0.4022499999999834, -0.023249524116810694
0.40249999999998326, -0.023265809224989553
0.40274999999998334, -0.023278402551527577
0.4029999999999833, -0.023287319043891586
0.4032499999999833, -0.023292573649548842
0.40349999999998315, -0.023294181315967055
0.40374999999998323, -0.023292156990613933
0.4039999999999832, -0.023286515620956294
0.4042499999999832, -0.023277272154461848
0.40449999999998304, -0.02326444153859697
0.4047499999999831, -0.023248038720830255
0.4049999999999831, -0.023228164973171594
0.40524999999998307, -0.023206028009809643
0.40549999999998293, -0.023183601497109407
0.405749999999983, -0.023162874427196112
0.405999999999983, -0.023145835792196756
0.40624999999998296, -0.023134474584234788
0.4064999999999828, -0.023130779795438094
0.4067499999999829, -0.023136740417931012
0.4069999999999829, -0.023154345443838764
0.40724999999998285, -0.023185583865287462
0.4074999999999827, -0.02323244467440322
0.4077499999999828, -0.023295917232577512
0.40799999999998277, -0.0233705731833016
0.40824999999998274, -0.02344844785714928
0.4084999999999826, -0.02352157033815061
0.4087499999999827, -0.023581969710336104
0.40899999999998266, -0.02362167505773538
0.4092499999999826, -0.02363271546437984
0.4094999999999825, -0.023607120014299543
0.4097499999999826, -0.023536917791525447
0.40999999999998255, -0.02341413788008584
0.4102499999999825, -0.02323080975901881
0.4104999999999824, -0.022982899422940406
0.41074999999998246, -0.022679982532229026
0.41099999999998243, -0.022334573850846695
0.4112499999999824, -0.021959188142755437
0.41149999999998227, -0.021566340171917275
0.41174999999998235, -0.021168544702293346
0.4119999999999823, -0.020778316497845672
0.4122499999999823, -0.02040817032253628
0.41249999999998216, -0.0200706209403263
0.41274999999998224, -0.01977818311517776
0.4129999999999822, -0.019543318056970183
0.4132499999999822, -0.019372195315993768
0.41349999999998205, -0.019258865138393144
0.41374999999998213, -0.019195999199872915
0.4139999999999821, -0.019176269176138128
0.4142499999999821, -0.01919234674289383
0.41449999999998194, -0.019236903575846398
0.414749999999982, -0.019302611350698218
0.414999999999982, -0.019382141743157
0.41524999999998197, -0.01946816642892646
0.41549999999998183, -0.019553357083712086
0.4157499999999819, -0.01963049289437846
0.4159999999999819, -0.019695402927222272
0.41624999999998186, -0.019747326034350365
0.4164999999999817, -0.019785680841189368
0.4167499999999818, -0.01980988597316591
0.4169999999999818, -0.019819360055707502
0.41724999999998175, -0.019813521714239446
0.4174999999999816, -0.019791789574190144
0.4177499999999817, -0.019753582260985336
0.41799999999998166, -0.01969831840005165
0.41824999999998164, -0.019625416616815716
0.4184999999999815, -0.019534789386468798
0.4187499999999816, -0.01943219852709266
0.41899999999998155, -0.019327231715358106
0.4192499999999815, -0.01922954277385225
0.4194999999999814, -0.019148785525163525
0.41974999999998147, -0.019094613791879933
0.41999999999998144, -0.019076681396590356
0.4202499999999814, -0.01910464216188057
0.4204999999999813, -0.019188149910340346
0.42074999999998136, -0.01933685846455724
0.42099999999998133, -0.01956042164711924
0.4212499999999814, -0.019865214939023712
0.42149999999998117, -0.020237917819011297
0.42174999999998125, -0.020657888487949805
0.4219999999999812, -0.021104472937851337
0.4222499999999811, -0.02155701716072933
0.42249999999998106, -0.021994867148595887
0.42274999999998114, -0.02239736889346311
0.4229999999999811, -0.02274386838734399
0.423249999999981, -0.023013711622251076
0.42349999999998095, -0.02318624459019558
0.42374999999998103, -0.023240815661029757
0.423999999999981, -0.023165233687433062
0.42424999999998086, -0.022974762030339768
0.42449999999998095, -0.02269022317573688
0.4247499999999809, -0.022332439609614063
0.4249999999999809, -0.021922233817959658
0.42524999999998075, -0.021480428286762
0.42549999999998084, -0.021027845502009868
0.4257499999999808, -0.0205853079496916
0.4259999999999808, -0.020173638115795534
0.42624999999998064, -0.019813658486310892
0.42649999999998073, -0.019526083778304226
0.4267499999999807, -0.01932125782030303
0.4269999999999807, -0.019190679027955238
0.42724999999998053, -0.019123851188666663
0.4274999999999806, -0.019110278089846222
0.4277499999999806, -0.019139463518899724
0.42799999999998056, -0.019200911263234755
0.4282499999999804, -0.019284125110258454
0.4284999999999805, -0.01937860884737841
0.4287499999999805, -0.019473866262001316
0.42899999999998045, -0.019559401141534316
0.4292499999999803, -0.019624978165579954
0.4294999999999804, -0.019667011355781305
0.42974999999998037, -0.019688945847578854
0.42999999999998034, -0.019694564097563205
0.4302499999999802, -0.019687648562326743
0.4304999999999803, -0.019671981698460517
0.43074999999998026, -0.01965134596255691
0.43099999999998023, -0.019629523811206973
0.4312499999999801, -0.019610297701002644
0.4314999999999802, -0.019597450088534973
0.43174999999998015, -0.01959476343039679
0.4319999999999801, -0.019605573527511577
0.43224999999998, -0.019628317670154605
0.43249999999998007, -0.019658406981744037
0.43274999999998004, -0.019691207848505865
0.43299999999998, -0.019722086656665194
0.4332499999999799, -0.01974640979245068
0.43349999999997996, -0.019759543642086097
0.43374999999997993, -0.01975685459179921
0.4339999999999799, -0.01973370902781646
0.43424999999997976, -0.01968547333636339
0.43449999999997985, -0.019607513903666884
0.4347499999999798, -0.019497452924423175
0.4349999999999798, -0.019365603339834614
0.43524999999997965, -0.019226712503592314
0.43549999999997974, -0.01909553241419859
0.4357499999999797, -0.01898681507015665
0.4359999999999797, -0.018915312469970136
0.43624999999997954, -0.018895776612140036
0.4364999999999796, -0.018942959495171774
0.4367499999999796, -0.01907161311756722
0.43699999999997957, -0.019296489477830026
0.43724999999997943, -0.019632333987932515
0.4374999999999795, -0.02008270625973374
0.4377499999999795, -0.02061708084493752
0.43799999999997946, -0.021198463271094425
0.4382499999999793, -0.021789859065759476
0.4384999999999794, -0.022354273756483245
0.4387499999999794, -0.02285471287081986
0.43899999999997935, -0.023254181936321228
0.4392499999999792, -0.023515686480540587
0.4394999999999793, -0.023602232031029846
0.43974999999997927, -0.023476824115341355
0.43999999999997924, -0.023102827218005384
0.4402499999999791, -0.022472375750732798
0.4404999999999792, -0.021626944039104146
0.44074999999997916, -0.020612858435450132
0.44099999999997913, -0.01947644529210102
0.441249999999979, -0.018264030961387068
0.4414999999999791, -0.01702194179563854
0.44174999999997905, -0.015796504147186585
0.441999999999979, -0.014634044368360577
0.4422499999999789, -0.013580888811491665
0.44249999999997897, -0.012683363828909666
0.44274999999997894, -0.011986275927480694
0.4429999999999789, -0.011499465661613417
0.44324999999997877, -0.011197802350907615
0.44349999999997886, -0.011054634413027564
0.44374999999997883, -0.011043310265636652
0.4439999999999788, -0.011137178326400488
0.44424999999997866, -0.011309587012982902
0.44449999999997875, -0.011533884743048173
0.4447499999999787, -0.011783419934261019
0.4449999999999787, -0.012031541004286161
0.44524999999997855, -0.0122515963707861
0.44549999999997864, -0.012418959487304537
0.4457499999999786, -0.01252960455956087
0.4459999999999786, -0.012591521777230774
0.44624999999997844, -0.012612851393952518
0.4464999999999785, -0.012601733663364811
0.4467499999999785, -0.012566308839105034
0.44699999999997847, -0.012514717174813672
0.44724999999997833, -0.012455098924128993
0.4474999999999784, -0.01239559434068882
0.4477499999999784, -0.012344343678132308
0.44799999999997836, -0.012309487190097279
0.4482499999999782, -0.01229740939683266
0.4484999999999783, -0.012305240660124728
0.4487499999999783, -0.012327073342869532
0.44899999999997825, -0.012356998012848841
0.4492499999999781, -0.012389105237843534
0.4494999999999782, -0.012417485585634491
0.44974999999997817, -0.012436229624004369
0.44999999999997825, -0.012439427920732715
0.450249999999978, -0.01242117104360041
0.4504999999999781, -0.012375549560390553
0.45074999999997806, -0.012296655000789691
0.4509999999999779, -0.012179499784138681
0.4512499999999779, -0.012021732692169884
0.451499999999978, -0.011821471292326358
0.45174999999997795, -0.01157683315205471
0.4519999999999778, -0.01128593583880022
0.4522499999999778, -0.010946896920008164
0.45249999999997786, -0.010557833963124263
0.45274999999997784, -0.010116864535592462
0.4529999999999777, -0.00962210620485937
0.4532499999999778, -0.009071676538370266
0.45349999999997775, -0.00846377445916957
0.4537499999999777, -0.007802106894753802
0.4539999999999776, -0.007099299449757623
0.45424999999997767, -0.006368791286619491
0.45449999999997764, -0.005624021567776971
0.4547499999999776, -0.0048784294556663
0.4549999999999775, -0.0041454541127259326
0.45524999999997756, -0.0034385347013925482
0.45549999999997753, -0.0027711103841037144
0.4557499999999775, -0.0021566203232969983
0.45599999999997737, -0.0016085036814095233
0.45624999999997745, -0.0011394783003484399
0.4564999999999774, -0.0007472189827542053
0.4567499999999774, -0.00041516999073198946
0.45699999999997726, -0.000126216922668565
0.45724999999997734, 0.00013675462304751917
0.4574999999999773, 0.00039085904802949045
0.4577499999999773, 0.0006532107538896881
0.45799999999997715, 0.000940924142239119
0.45824999999997723, 0.001271113614692343
0.4584999999999772, 0.001660893572860811
0.4587499999999772, 0.002127378418356418
0.45899999999997704, 0.0026853034751459504
0.4592499999999771, 0.003326917465522161
0.4594999999999771, 0.004032090526116416
0.45974999999997707, 0.004780564028500134
0.4599999999999769, 0.005552079344242511
0.460249999999977, 0.006326377844914077
0.460499999999977, 0.007083200902085363
0.46074999999997696, 0.007802289887326008
0.4609999999999768, 0.008463386172206988
0.4612499999999769, 0.0090462311282975
0.4614999999999769, 0.009530566127168516
0.46174999999997685, 0.009902753720928636
0.4619999999999767, 0.010181867537556233
0.4622499999999768, 0.010397065026326757
0.46249999999997676, 0.010577506483763432
0.46274999999997674, 0.010752352206391258
0.4629999999999766, 0.010950762490735233
0.4632499999999767, 0.011201897633319469
0.46349999999997665, 0.011534917930667632
0.4637499999999766, 0.011978983679303834
0.4639999999999765, 0.012563255175753074
0.46424999999997657, 0.01331686322415715
0.46449999999997654, 0.014251212243222344
0.4647499999999765, 0.015330002465249404
0.4649999999999764, 0.01650899105594439
0.46524999999997646, 0.017743935181013804
0.46549999999997643, 0.01899059200616371
0.4657499999999764, 0.020204718697101054
0.46599999999997627, 0.02134207241953101
0.46624999999997635, 0.022358410339160084
0.4664999999999763, 0.02320948962169478
0.4667499999999763, 0.0238510674328416
0.46699999999997616, 0.024239579810697798
0.46724999999997624, 0.024370760768781086
0.4674999999999762, 0.024300445431469253
0.4677499999999762, 0.024089545300456816
0.46799999999997605, 0.023798971877437847
0.46824999999997613, 0.023489636664108193
0.4684999999999761, 0.023222451162162372
0.4687499999999761, 0.023058326873294455
0.46899999999997594, 0.0230581752991994
0.469249999999976, 0.023282907941572173
0.469499999999976, 0.023793436302108173
0.46974999999997596, 0.02464744255214013
0.4699999999999758, 0.02584132691335439
0.4702499999999759, 0.02731665944132855
0.4704999999999759, 0.02901307622590732
0.47074999999997585, 0.03087021335693585
0.4709999999999757, 0.032827706924257516
0.4712499999999758, 0.034825193017717915
0.47149999999997577, 0.036802307727160866
0.47174999999997574, 0.03869868714243152
0.4719999999999756, 0.04045396735337414
0.4722499999999757, 0.04200778444983344
0.47249999999997566, 0.04330684842012156
0.47274999999997563, 0.04436008148481729
0.4729999999999755, 0.045208713211311924
0.4732499999999756, 0.045894248476202826
0.47349999999997555, 0.04645819215608693
0.4737499999999755, 0.0469420491275625
0.4739999999999754, 0.04738732426722558
0.47424999999997547, 0.04783552245167488
0.47449999999997544, 0.048328148557506445
0.4747499999999754, 0.04890670746131809
0.4749999999999753, 0.04961270403970719
0.47524999999997536, 0.05047900062251243
0.47549999999997533, 0.05149842583152342
0.4757499999999753, 0.05265222477971987
0.47599999999997517, 0.05392164140982425
0.47624999999997525, 0.05528791966455904
0.4764999999999752, 0.05673230348664626
0.4767499999999752, 0.0582360368188084
0.47699999999997506, 0.05978036360376793
0.47724999999997514, 0.061346527784246874
0.4774999999999751, 0.06291577330296816
0.4777499999999751, 0.06446935506336704
0.47799999999997494, 0.06599298709809309
0.47824999999997503, 0.0674836702600694
0.478499999999975, 0.06894016408622639
0.47874999999997486, 0.07036122811349532
0.47899999999997483, 0.07174562187880662
0.4792499999999749, 0.0730921049190929
0.4794999999999749, 0.07439943677128369
0.47974999999997475, 0.07566637697231116
0.4799999999999747, 0.07689168505910526
0.4802499999999748, 0.0780741205685973
0.4804999999999748, 0.07921250181734862
0.48074999999997464, 0.08030858706979949
0.4809999999999746, 0.08136838274320368
0.4812499999999747, 0.08239822683932285
0.48149999999997467, 0.08340445735991908
0.48174999999997453, 0.08439341230675534
0.4819999999999746, 0.08537142968159461
0.4822499999999746, 0.08634484748619853
0.48249999999997456, 0.08732000372232873
0.4827499999999744, 0.08830323639174908
0.4829999999999745, 0.08930088349622034
0.4832499999999745, 0.09031889232262191
0.48349999999997445, 0.09135644023153189
0.4837499999999743, 0.09240697617428806
0.4839999999999744, 0.09346376851470062
0.48424999999997437, 0.0945200856165811
0.48449999999997434, 0.09556919584373968
0.4847499999999742, 0.09660436755998747
0.4849999999999743, 0.09761886912913509
0.48524999999997426, 0.09860596891499318
0.48549999999997423, 0.09955893528137238
0.4857499999999741, 0.10047103659208378
0.4859999999999742, 0.10133629234818686
0.48624999999997415, 0.10215487680866575
0.4864999999999741, 0.1029299779823174
0.486749999999974, 0.1036648045043469
0.48699999999997406, 0.10436256500995666
0.48724999999997404, 0.10502646813435002
0.487499999999974, 0.10565972251273115
0.48774999999997387, 0.10626553678030248
0.48799999999997395, 0.10684711957226867
0.4882499999999739, 0.10740767952383301
0.4884999999999739, 0.10795042527019838
0.48874999999997376, 0.1084771380812013
0.48899999999997384, 0.10898339847995642
0.4892499999999738, 0.10946310359412514
0.4894999999999738, 0.10991015051908182
0.48974999999997365, 0.11031843635020167
0.48999999999997373, 0.11068185818286169
0.4902499999999737, 0.1109943131124349
0.4904999999999737, 0.11124969823429698
0.49074999999997354, 0.11144191064382447
0.4909999999999736, 0.11156484743639217
0.4912499999999736, 0.11161244684195948
0.49149999999997357, 0.11159061888505883
0.49174999999997343, 0.111533791278001
0.4919999999999735, 0.11148054691187248
0.4922499999999735, 0.11146946867776064
0.49249999999997346, 0.11153913946675109
0.4927499999999733, 0.11172814216993077
0.4929999999999734, 0.11207505967838749
0.4932499999999734, 0.11261847488320642
0.49349999999997335, 0.11339697067547627
0.4937499999999732, 0.1144491299462822
0.4939999999999733, 0.11581261438647728
0.49424999999997327, 0.11748490948356238
0.49449999999997324, 0.11940863495237419
0.4947499999999731, 0.12152246167214553
0.4949999999999732, 0.12376506052211056
0.49524999999997316, 0.12607510238150255
0.49549999999997313, 0.12839125812955698
0.495749999999973, 0.1306521986455058
0.4959999999999731, 0.13279659480858408
0.49624999999997305, 0.1347631174980255
0.496499999999973, 0.13649043759306378
0.4967499999999729, 0.1379207909814082
0.49699999999997296, 0.13905299018566808
0.49724999999997294, 0.13993111593072927
0.4974999999999729, 0.14060051695050824
0.49774999999997277, 0.14110654197892147
0.49799999999997285, 0.14149453974988502
0.4982499999999728, 0.14180985899731535
0.4984999999999728, 0.1420978484551294
0.49874999999997266, 0.14240385685724277
0.49899999999997274, 0.1427732329375737
0.4992499999999727, 0.1432513254300365
0.4994999999999727, 0.14387826393546854
0.49974999999997255, 0.14465428677356718
0.49999999999997263, 0.14556122353259315
0.5002499999999728, 0.14658080500042425
0.5004999999999726, 0.1476947619649378
0.5007499999999727, 0.14888482521401025
0.5009999999999726, 0.1501327255355207
0.5012499999999727, 0.1514201937173456
0.5014999999999725, 0.15272896054736318
0.5017499999999726, 0.15404075681344986
0.5019999999999725, 0.15533731330348344
0.5022499999999726, 0.15660260551035288
0.5024999999999724, 0.15782975531076815
0.5027499999999725, 0.15901421384715508
0.5029999999999724, 0.16015143226247552
0.5032499999999724, 0.16123686169969176
0.5034999999999723, 0.16226595330176474
0.5037499999999724, 0.16323415821165588
0.5039999999999722, 0.164136927572327
0.5042499999999721, 0.16496971252673998
0.5044999999999722, 0.16572796421785485
0.5047499999999723, 0.16640717084716483
0.5049999999999721, 0.16701087000861747
0.505249999999972, 0.16756065426453048
0.5054999999999721, 0.1680805740353275
0.5057499999999722, 0.16859467974143438
0.505999999999972, 0.16912702180327788
0.5062499999999719, 0.16970165064128162
0.5064999999999718, 0.17034261667587147
0.5067499999999721, 0.17107397032747418
0.5069999999999719, 0.17191976201651293
0.5072499999999718, 0.17290404216341493
0.5074999999999716, 0.17405017104091103
0.507749999999972, 0.17535505174728794
0.5079999999999718, 0.17678143242879507
0.5082499999999717, 0.17828979998414285
0.5084999999999715, 0.17984064131204258
0.5087499999999718, 0.1813944433112038
0.5089999999999717, 0.18291169288033737
0.5092499999999716, 0.18435287691815416
0.5094999999999714, 0.18567848232336415
0.5097499999999717, 0.18684899599467775
0.5099999999999716, 0.18782490483080494
0.5102499999999714, 0.18856927189049255
0.5104999999999713, 0.1890827114005531
0.5107499999999716, 0.18939424355944823
0.5109999999999715, 0.18953359090516386
0.5112499999999713, 0.18953047597568506
0.5114999999999712, 0.18941462130899778
0.5117499999999715, 0.18921574944308617
0.5119999999999714, 0.18896358291593662
0.5122499999999712, 0.1886878442655342
0.5124999999999711, 0.1884182560298644
0.5127499999999714, 0.18818454074691182
0.5129999999999713, 0.1880144479946133
0.5132499999999711, 0.1879216460454618
0.513499999999971, 0.18791368240380102
0.5137499999999713, 0.18799807955793657
0.5139999999999711, 0.18818235999617094
0.514249999999971, 0.1884740462068093
0.5144999999999709, 0.18888066067815457
0.5147499999999712, 0.18940972589851146
0.514999999999971, 0.19006876435618514
0.5152499999999709, 0.19086529853947765
0.5154999999999708, 0.19180685091771732
0.5157499999999711, 0.19289526388385614
0.5159999999999709, 0.19411067050084085
0.5162499999999708, 0.195428018093053
0.5164999999999706, 0.19682225398487274
0.516749999999971, 0.19826832550068074
0.5169999999999708, 0.19974117996485763
0.5172499999999707, 0.20121576470178493
0.5174999999999705, 0.20266702703584238
0.5177499999999708, 0.20406991429141064
0.5179999999999707, 0.2053993737928712
0.5182499999999706, 0.2066304255503626
0.5184999999999704, 0.20775027156952586
0.5187499999999707, 0.20877185741912374
0.5189999999999706, 0.2097113997190485
0.5192499999999705, 0.21058511508919064
0.5194999999999703, 0.21140922014944286
0.5197499999999706, 0.21219993151969563
0.5199999999999705, 0.21297346581984256
0.5202499999999703, 0.21374603966977368
0.5204999999999702, 0.21453386968938126
0.5207499999999705, 0.21535317249855712
0.5209999999999704, 0.2162197187627961
0.5212499999999702, 0.21713414516629737
0.5214999999999701, 0.21807861580016574
0.5217499999999704, 0.21903417274980397
0.5219999999999703, 0.21998185810061344
0.5222499999999701, 0.220902713937996
0.52249999999997, 0.22177778234735301
0.5227499999999703, 0.22258810541408725
0.5229999999999702, 0.2233147252235992
0.52324999999997, 0.22393868386129245
0.5234999999999699, 0.224441023412568
0.5237499999999702, 0.2248044508777487
0.52399999999997, 0.22503402050596133
0.5242499999999699, 0.22515076539847634
0.5244999999999698, 0.22517606479665364
0.5247499999999701, 0.2251312979418536
0.5249999999999699, 0.22503784407543614
0.5252499999999698, 0.22491708243876118
0.5254999999999697, 0.22479039227319042
0.52574999999997, 0.22467915282008244
0.5259999999999698, 0.2246047433207985
0.5262499999999697, 0.22458854301669806
0.5264999999999695, 0.22464915973075072
0.5267499999999699, 0.22478671389064875
0.5269999999999697, 0.22499376082780786
0.5272499999999696, 0.22526283317787588
0.5274999999999694, 0.2255864635764988
0.5277499999999697, 0.22595718465932535
0.5279999999999696, 0.22636752906200241
0.5282499999999695, 0.22681002942017647
0.5284999999999693, 0.22727721836949666
0.5287499999999696, 0.227761628545609
0.5289999999999695, 0.2282557927136608
0.5292499999999694, 0.228755204840978
0.5294999999999692, 0.22926597639200352
0.5297499999999695, 0.22979659758278803
0.5299999999999694, 0.23035555862938217
0.5302499999999692, 0.23095134974783527
0.5304999999999691, 0.23159246115419885
0.5307499999999694, 0.23228738306452268
0.5309999999999693, 0.2330446056948574
0.5312499999999691, 0.23387261926125325
0.531499999999969, 0.2347799139797604
0.5317499999999693, 0.23577489867135837
0.5319999999999692, 0.23685516983649268
0.532249999999969, 0.23799678556343107
0.5324999999999689, 0.239173252352324
0.5327499999999692, 0.2403580767033242
0.532999999999969, 0.24152476511658216
0.5332499999999689, 0.24264682409224925
0.5334999999999688, 0.2436977601304764
0.5337499999999691, 0.24465107973141587
0.5339999999999689, 0.2454802893952177
0.5342499999999688, 0.24615889562203375
0.5344999999999687, 0.24666120500423983
0.534749999999969, 0.2469857116269023
0.5349999999999688, 0.24715882845418546
0.5352499999999687, 0.24720851963827073
0.5354999999999686, 0.2471627493313373
0.5357499999999689, 0.2470494816855653
0.5359999999999687, 0.246896680853133
0.5362499999999688, 0.24673231098622184
0.5364999999999684, 0.2465843362370106
0.5367499999999688, 0.2464807207576789
0.5369999999999686, 0.24644942870040776
0.5372499999999687, 0.2465164253922234
0.5374999999999683, 0.2466829137709059
0.5377499999999686, 0.2469333652289616
0.5379999999999685, 0.24725193628868558
0.5382499999999686, 0.247622783472373
0.5384999999999684, 0.24803006330231714
0.5387499999999685, 0.24845793230081403
0.5389999999999684, 0.24889054699015745
0.5392499999999685, 0.24931206389264204
0.5394999999999683, 0.24970663953056382
0.5397499999999684, 0.25005843042621567
0.5399999999999683, 0.250353302740308
0.5402499999999684, 0.25058779056903413
0.5404999999999682, 0.2507625352278495
0.5407499999999683, 0.2508781866598131
0.5409999999999682, 0.25093539480798377
0.5412499999999683, 0.2509348096154209
0.5414999999999681, 0.2508770810251848
0.5417499999999682, 0.250762858980333
0.5419999999999681, 0.2505927934239254
0.5422499999999681, 0.2503675342990208
0.542499999999968, 0.25008773195516554
0.5427499999999681, 0.24975651987186964
0.542999999999968, 0.24938538643460229
0.543249999999968, 0.24898757534883265
0.5434999999999679, 0.24857633032002857
0.543749999999968, 0.24816489505366013
0.5439999999999678, 0.24776651325519472
0.5442499999999679, 0.24739442863010108
0.5444999999999678, 0.2470618848838475
0.5447499999999679, 0.24678212572190317
0.5449999999999677, 0.24656839484973636
0.5452499999999678, 0.24643381350740023
0.5454999999999677, 0.24637832180646413
0.5457499999999678, 0.24637709661671314
0.5459999999999676, 0.24640258303490103
0.5462499999999677, 0.24642722615778156
0.5464999999999676, 0.2464234710821076
0.5467499999999677, 0.24636376290463247
0.5469999999999675, 0.2462205467221099
0.5472499999999676, 0.24596626763129326
0.5474999999999675, 0.24557337072893537
0.5477499999999675, 0.24501430111179
0.5479999999999674, 0.24426258095783382
0.5482499999999675, 0.2433209010733286
0.5484999999999673, 0.2422237945801493
0.5487499999999674, 0.24100740770854445
0.5489999999999673, 0.23970788668876253
0.5492499999999674, 0.23836137775105293
0.5494999999999672, 0.23700402712566415
0.5497499999999673, 0.23567198104284515
0.5499999999999672, 0.23440138573284397
0.5502499999999673, 0.23322838742591
0.5504999999999671, 0.23218913235229266
0.5507499999999672, 0.23131687154640757
0.5509999999999671, 0.23061168246818342
0.5512499999999672, 0.23005246744424124
0.551499999999967, 0.22961778594968463
0.5517499999999671, 0.22928619745961676
0.551999999999967, 0.2290362614491408
0.552249999999967, 0.22884653739336036
0.5524999999999669, 0.22869558476737772
0.552749999999967, 0.2285619630462974
0.5529999999999669, 0.22842423170522208
0.5532499999999669, 0.2282609502192554
0.5534999999999668, 0.22805375967891228
0.5537499999999669, 0.22780230074445074
0.5539999999999667, 0.22751273051357845
0.5542499999999668, 0.22719121508615636
0.5544999999999667, 0.22684392056204405
0.5547499999999668, 0.22647701304110202
0.5549999999999666, 0.2260966586231894
0.5552499999999667, 0.22570902340816845
0.5554999999999666, 0.225320273495897
0.5557499999999667, 0.22493657498623687
0.5559999999999665, 0.2245640932016988
0.5562499999999666, 0.2242070295323204
0.5564999999999665, 0.2238633819464786
0.5567499999999665, 0.22352992656963
0.5569999999999664, 0.22320343952723087
0.5572499999999665, 0.222880696944737
0.5574999999999664, 0.22255847494760506
0.5577499999999664, 0.22223354966129039
0.5579999999999663, 0.2219026972112501
0.5582499999999664, 0.22156269372294046
0.5584999999999662, 0.2212103153218168
0.5587499999999663, 0.2208423099409229
0.5589999999999662, 0.220452921357273
0.5592499999999663, 0.22003195442234214
0.5594999999999661, 0.2195687586266537
0.5597499999999662, 0.21905268346073203
0.5599999999999661, 0.21847307841510055
0.5602499999999662, 0.21781929298028402
0.560499999999966, 0.21708067664680541
0.5607499999999661, 0.2162465789051886
0.560999999999966, 0.21530634924595748
0.561249999999966, 0.21424933715963546
0.5614999999999659, 0.2130656481493438
0.561749999999966, 0.21176382024316887
0.5619999999999659, 0.21037142349458549
0.5622499999999659, 0.20891690390825035
0.5624999999999658, 0.20742870748882059
0.5627499999999659, 0.20593528024095464
0.5629999999999658, 0.20446506816930876
0.5632499999999658, 0.20304651727854006
0.5634999999999657, 0.20170807357330833
0.5637499999999658, 0.20047818305826803
0.5639999999999656, 0.1993852917380785
0.5642499999999657, 0.19845537799457924
0.5644999999999656, 0.19768821936180814
0.5647499999999657, 0.19706779944830854
0.5649999999999655, 0.196577884283883
0.5652499999999656, 0.19620223989833496
0.5654999999999655, 0.19592463232146606
0.5657499999999656, 0.19572882758308063
0.5659999999999654, 0.19559859171297989
0.5662499999999655, 0.19551769074096725
0.5664999999999654, 0.19546989069684573
0.5667499999999654, 0.19543895761041785
0.5669999999999653, 0.1954087276030414
0.5672499999999654, 0.19536342025194475
0.5674999999999653, 0.19528738560121806
0.5677499999999653, 0.19516497380361875
0.5679999999999652, 0.1949805350119056
0.5682499999999653, 0.1947184193788365
0.5684999999999651, 0.19436297705716887
0.5687499999999652, 0.1938985581996615
0.5689999999999651, 0.19330951295907228
0.5692499999999652, 0.19258019148815908
0.569499999999965, 0.19169495153134442
0.5697499999999651, 0.1906480789630649
0.569999999999965, 0.1894633135759407
0.5702499999999651, 0.1881698318497329
0.5704999999999649, 0.18679681026420303
0.570749999999965, 0.18537342529911394
0.5709999999999649, 0.1839288534342267
0.571249999999965, 0.18249227114930244
0.5714999999999648, 0.1810928549241031
0.5717499999999649, 0.17975978123839198
0.5719999999999648, 0.17852222657192796
0.5722499999999648, 0.17740912773473916
0.5724999999999647, 0.17643157883744154
0.5727499999999648, 0.1755708184771776
0.5729999999999646, 0.17480524158918698
0.5732499999999647, 0.17411324310871112
0.5734999999999646, 0.17347321797099013
0.5737499999999647, 0.17286356111126544
0.5739999999999645, 0.17226266746477759
0.5742499999999646, 0.17164893196676667
0.5744999999999645, 0.17100074955247502
0.5747499999999646, 0.17029651515714228
0.5749999999999644, 0.1695153747717706
0.5752499999999645, 0.1686530345358661
0.5754999999999644, 0.16772137345213878
0.5757499999999645, 0.1667329441084009
0.5759999999999643, 0.16570029909246475
0.5762499999999644, 0.16463599099214177
0.5764999999999643, 0.16355257239524423
0.5767499999999643, 0.1624625958895849
0.5769999999999642, 0.1613786140629756
0.5772499999999643, 0.16031317950322732
0.5774999999999642, 0.15927884479815368
0.5777499999999642, 0.15828657382452027
0.5779999999999641, 0.15733167191808706
0.5782499999999642, 0.15640053395706888
0.578499999999964, 0.1554794517187963
0.5787499999999641, 0.1545547169806012
0.578999999999964, 0.15361262151981592
0.5792499999999641, 0.15263945711377236
0.5794999999999639, 0.15162151553980285
0.579749999999964, 0.15054508857523885
0.5799999999999639, 0.14939646799741224
0.580249999999964, 0.14816194558365536
0.5804999999999638, 0.1468327847913864
0.5807499999999639, 0.14542573685543259
0.5809999999999638, 0.14396569857168018
0.5812499999999639, 0.14247757033519903
0.5814999999999637, 0.14098625254105812
0.5817499999999638, 0.13951664558432553
0.5819999999999637, 0.13809364986007067
0.5822499999999637, 0.13674216576336207
0.5824999999999636, 0.1354870936892687
0.5827499999999637, 0.13435333403286043
0.5829999999999635, 0.13336577054134358
0.5832499999999636, 0.13253636835956328
0.5834999999999635, 0.13184107691097324
0.5837499999999636, 0.13124961854289818
0.5839999999999634, 0.13073171560266195
0.5842499999999635, 0.13025709043758926
0.5844999999999634, 0.12979546539500397
0.5847499999999635, 0.1293165628222308
0.5849999999999633, 0.12879010506659405
0.5852499999999634, 0.128185814475418
0.5854999999999633, 0.1274734133960269
0.5857499999999634, 0.1266228932682565
0.5859999999999632, 0.12562125958913262
0.5862499999999633, 0.12448240154182866
0.5864999999999632, 0.1232225817661381
0.5867499999999632, 0.12185806290185663
0.5869999999999631, 0.12040510758877687
0.5872499999999632, 0.11887997846669451
0.587499999999963, 0.11729893817540349
0.5877499999999631, 0.11567824935469728
0.587999999999963, 0.11403417464437071
0.5882499999999631, 0.1123829766842186
0.5884999999999629, 0.1107407726762073
0.588749999999963, 0.10912076804490578
0.5889999999999629, 0.10753347856806617
0.589249999999963, 0.10598931909944298
0.5894999999999628, 0.10449870449279253
0.5897499999999629, 0.10307204960187066
0.5899999999999628, 0.1017197692804328
0.5902499999999629, 0.1004522783822348
0.5904999999999627, 0.09927999176103208
0.5907499999999628, 0.09821332427058183
0.5909999999999627, 0.09726269076463856
0.5912499999999627, 0.09643605722841198
0.5914999999999626, 0.09571894993451302
0.5917499999999627, 0.09508484600455258
0.5919999999999626, 0.09450710721773703
0.5922499999999626, 0.09395909535327363
0.5924999999999625, 0.09341417219036874
0.5927499999999626, 0.09284569950822963
0.5929999999999624, 0.092227039086064
0.5932499999999625, 0.09153155270307733
0.5934999999999624, 0.09073260213847689
0.5937499999999625, 0.08980354917146993
0.5939999999999623, 0.08872510317570192
0.5942499999999624, 0.08751328548322546
0.5944999999999623, 0.0861947124723006
0.5947499999999624, 0.08479600254117914
0.5949999999999622, 0.08334377408811333
0.5952499999999623, 0.08186464551135497
0.5954999999999622, 0.08038523520915497
0.5957499999999623, 0.0789321615797669
0.5959999999999621, 0.07753204302144123
0.5962499999999622, 0.07621149793243154
0.5964999999999621, 0.07499712662929525
0.5967499999999621, 0.07390640446120544
0.596999999999962, 0.07293288730802949
0.5972499999999621, 0.0720662594287167
0.597499999999962, 0.07129620508221723
0.597749999999962, 0.07061240852748263
0.5979999999999619, 0.07000455402346173
0.598249999999962, 0.0694623258291065
0.5984999999999618, 0.06897540820336712
0.5987499999999619, 0.06853348540519288
0.5989999999999618, 0.06812624169353532
0.5992499999999619, 0.06774317126852436
0.5994999999999617, 0.06736344553924845
0.5997499999999618, 0.06695082788295847
0.5999999999999617, 0.06646782314222754
0.6002499999999618, 0.06587693615962964
0.6004999999999616, 0.06514067177773564
0.6007499999999617, 0.06422153483911996
0.6009999999999616, 0.06308203018635483
0.6012499999999616, 0.06168466266201289
0.6014999999999615, 0.05999193710866724
0.6017499999999616, 0.05796635836889141
0.6019999999999615, 0.05557402222852392
0.6022499999999615, 0.052846542156717025
0.6024999999999614, 0.04987276941035956
0.6027499999999615, 0.046743480729043885
0.6029999999999613, 0.043549452852365444
0.6032499999999614, 0.0403814625199157
0.6034999999999613, 0.037330286471288776
0.6037499999999614, 0.034486701446077905
0.6039999999999612, 0.031941484183877655
0.6042499999999613, 0.02978541142427904
0.6044999999999612, 0.028109259906877515
0.6047499999999613, 0.02699134208724807
0.6049999999999611, 0.026403636070388092
0.6052499999999612, 0.026264267693958843
0.6054999999999611, 0.026490943866090966
0.6057499999999612, 0.027001371494915105
0.605999999999961, 0.02771325748856235
0.6062499999999611, 0.028544308755162895
0.606499999999961, 0.029412232202847832
0.606749999999961, 0.030234734739747804
0.6069999999999609, 0.03092952327399301
0.607249999999961, 0.03141430471371498
0.6074999999999608, 0.031623334985707796
0.6077499999999609, 0.03156544989818144
0.6079999999999608, 0.031270485014982086
0.6082499999999609, 0.030768277070498673
0.6084999999999607, 0.03008866279912059
0.6087499999999608, 0.02926147893523723
0.6089999999999607, 0.028316562213237084
0.6092499999999608, 0.027283749367510435
0.6094999999999606, 0.02619287713244578
0.6097499999999607, 0.025073782242432507
0.6099999999999606, 0.02395627757035168
0.6102499999999607, 0.022861813797115715
0.6104999999999605, 0.021791219550582497
0.6107499999999606, 0.02074220080064748
0.6109999999999605, 0.019712463517206125
0.6112499999999605, 0.01869971367015255
0.6114999999999604, 0.017701657229380885
0.6117499999999605, 0.016716000164787026
0.6119999999999604, 0.0157404484462651
0.6122499999999604, 0.014772708043710114
0.6124999999999603, 0.013810484927017086
0.6127499999999604, 0.012851476815683327
0.6129999999999602, 0.011892992671608926
0.6132499999999603, 0.010931793138881485
0.6134999999999602, 0.009964597511324502
0.6137499999999603, 0.008988125082761478
0.6139999999999601, 0.00799909514701369
0.6142499999999602, 0.00699422699790464
0.6144999999999601, 0.00597023992925827
0.6147499999999602, 0.004923853234895859
0.61499999999996, 0.003851786208640906
0.6152499999999601, 0.0027507581443164675
0.61549999999996, 0.0016180748826086777
0.61574999999996, 0.00046082702102356876
0.6159999999999599, -0.0007058110466853229
0.61624999999996, -0.0018664224657021222
0.6164999999999599, -0.003005590381214951
0.6167499999999599, -0.004107897938408378
0.6169999999999598, -0.005157928282469637
0.6172499999999599, -0.006140264558583741
0.6174999999999597, -0.007039489911937924
0.6177499999999598, -0.007840187487717643
0.6179999999999597, -0.008526940431109242
0.6182499999999598, -0.009087388664576146
0.6184999999999596, -0.009533481351668538
0.6187499999999597, -0.009888773573984988
0.6189999999999596, -0.010176892229020407
0.6192499999999597, -0.010421464214271037
0.6194999999999595, -0.010646116427231345
0.6197499999999596, -0.010874475765398905
0.6199999999999595, -0.011130169126269074
0.6202499999999596, -0.011436823407337648
0.6204999999999594, -0.011818065506099984
0.6207499999999595, -0.012297522320052323
0.6209999999999594, -0.012890847266429084
0.6212499999999594, -0.01357999207450078
0.6214999999999593, -0.01433800578476152
0.6217499999999594, -0.015137937385415245
0.6219999999999593, -0.01595283586466545
0.6222499999999593, -0.016755750210716958
0.6224999999999592, -0.017519729411774154
0.6227499999999593, -0.01821782245604009
0.6229999999999591, -0.018823078331720478
0.6232499999999592, -0.01930854602701837
0.6234999999999591, -0.01964733768577087
0.6237499999999592, -0.01982870941082826
0.623999999999959, -0.019879393957685565
0.6242499999999591, -0.019831428752658642
0.624499999999959, -0.019716851222060683
0.6247499999999591, -0.019567698792205768
0.6249999999999589, -0.019416008889407532
0.625249999999959, -0.019293818939980056
0.6254999999999589, -0.019233166370237864
0.625749999999959, -0.01926608860649326
0.6259999999999588, -0.019424623075060765
0.6262499999999589, -0.019740176483937777
0.6264999999999588, -0.020218148740371422
0.6267499999999588, -0.020829269267703676
0.6269999999999587, -0.021541859003638475
0.6272499999999588, -0.022324238885881975
0.6274999999999586, -0.023144729852139
0.6277499999999587, -0.023971652840114377
0.6279999999999586, -0.024773328787513815
0.6282499999999587, -0.025518078632042585
0.6284999999999585, -0.026174223311405065
0.6287499999999586, -0.026710083763307413
0.6289999999999585, -0.027095970643201905
0.6292499999999586, -0.027332633486648827
0.6294999999999584, -0.0274445995288497
0.6297499999999585, -0.0274570279615034
0.6299999999999584, -0.027395077976312354
0.6302499999999585, -0.02728390876497544
0.6304999999999583, -0.027148679519195085
0.6307499999999584, -0.027014549430671053
0.6309999999999583, -0.02690667769110311
0.6312499999999583, -0.026850223492193237
0.6314999999999582, -0.026870346025641645
0.6317499999999583, -0.02698863989379019
0.6319999999999582, -0.027200244729466583
0.6322499999999582, -0.027488399621431014
0.6324999999999581, -0.027836286588549974
0.6327499999999582, -0.028227087649690397
0.632999999999958, -0.028643984823716995
0.6332499999999581, -0.029070160129497147
0.633499999999958, -0.02948879558589601
0.6337499999999581, -0.02988307321177963
0.6339999999999579, -0.030236175026014944
0.634249999999958, -0.030531283047572355
0.6344999999999579, -0.03075564372756112
0.634749999999958, -0.03091261723705596
0.6349999999999578, -0.031009556493309276
0.6352499999999579, -0.031053814413574354
0.6354999999999578, -0.031052743915104042
0.6357499999999578, -0.03101369791515074
0.6359999999999577, -0.03094402933096596
0.6362499999999578, -0.030851091079804327
0.6364999999999577, -0.030742236078917795
0.6367499999999577, -0.03062481724555921
0.6369999999999576, -0.03050618368978819
0.6372499999999577, -0.030392947092735767
0.6374999999999575, -0.030290106811330375
0.6377499999999576, -0.030202449065486192
0.6379999999999575, -0.03013476007511784
0.6382499999999576, -0.030091826060139493
0.6384999999999574, -0.030078433240464886
0.6387499999999575, -0.030099367836009527
0.6389999999999574, -0.030159416066686262
0.6392499999999575, -0.0302633641524106
0.6394999999999573, -0.030415998313096715
0.6397499999999574, -0.030621943293110743
0.6399999999999573, -0.030879952913146713
0.6402499999999574, -0.031181381594568958
0.6404999999999572, -0.03151711144826086
0.6407499999999573, -0.03187802458510314
0.6409999999999572, -0.0322550031159774
0.6412499999999572, -0.032638929151763474
0.6414999999999571, -0.03302068480334386
0.6417499999999572, -0.03339115218159883
0.641999999999957, -0.033741213397409986
0.6422499999999571, -0.03406175056165939
0.642499999999957, -0.03434388095721985
0.6427499999999571, -0.034582030006824915
0.6429999999999569, -0.03477306609596997
0.643249999999957, -0.03491391474563388
0.6434999999999569, -0.035001501476793706
0.643749999999957, -0.03503275181042831
0.6439999999999568, -0.03500459126751698
0.6442499999999569, -0.03491394536903725
0.6444999999999568, -0.034757739635967067
0.6447499999999569, -0.03453289958928574
0.6449999999999567, -0.03423635074997122
0.6452499999999568, -0.03386726947480412
0.6454999999999567, -0.033440437191620376
0.6457499999999567, -0.032977245915967845
0.6459999999999566, -0.03249911145305262
0.6462499999999567, -0.03202744960807946
0.6464999999999566, -0.03158367618625402
0.6467499999999566, -0.031189206992781937
0.6469999999999565, -0.03086545783286887
0.6472499999999566, -0.030633844511719577
0.6474999999999564, -0.030515782834539262
0.6477499999999565, -0.030532688482415526
0.6479999999999564, -0.03069668775144052
0.6482499999999565, -0.0309853606557966
0.6484999999999563, -0.03136825817705802
0.6487499999999564, -0.031814931296798576
0.6489999999999563, -0.0322949309965912
0.6492499999999564, -0.03277780825801102
0.6494999999999562, -0.03323311406263052
0.6497499999999563, -0.033630399392023946
0.6499999999999562, -0.03393921522776555
0.6502499999999563, -0.03412911255142914
0.6504999999999561, -0.03416976437130703
0.6507499999999562, -0.034049304357612
0.6509999999999561, -0.03379390219139733
0.6512499999999561, -0.03343441850999884
0.651499999999956, -0.033001713950749245
0.6517499999999561, -0.0325266491509848
0.651999999999956, -0.0320400847480391
0.652249999999956, -0.031572881379247075
0.6524999999999559, -0.031155899681943655
0.652749999999956, -0.030820000293461547
0.6529999999999558, -0.030596043851137456
0.6532499999999559, -0.030514156628866473
0.6534999999999558, -0.030580763283699852
0.6537499999999559, -0.030774042023486103
0.6539999999999557, -0.03107051894847679
0.6542499999999558, -0.03144672015892569
0.6544999999999557, -0.0318791717550857
0.6547499999999558, -0.03234439983721016
0.6549999999999556, -0.032818930505551513
0.6552499999999557, -0.03327928986036355
0.6554999999999556, -0.033702004001899155
0.6557499999999556, -0.03406359903041123
0.6559999999999555, -0.034342082401563
0.6562499999999556, -0.03453466950255146
0.6564999999999555, -0.03465198182751861
0.6567499999999555, -0.03470491461474223
0.6569999999999554, -0.03470436310250413
0.6572499999999555, -0.03466122252908255
0.6574999999999553, -0.03458638813275705
0.6577499999999554, -0.03449075515180722
0.6579999999999553, -0.03438521882451351
0.6582499999999554, -0.0342806743891555
0.6584999999999552, -0.03418801708401098
0.6587499999999553, -0.03411678984384903
0.6589999999999552, -0.03406776958497648
0.6592499999999553, -0.03403823822327334
0.6594999999999551, -0.034025468613158694
0.6597499999999552, -0.034026733609053395
0.6599999999999551, -0.03403930606537786
0.6602499999999552, -0.03406045883655073
0.660499999999955, -0.03408746477699243
0.6607499999999551, -0.0341175967411238
0.660999999999955, -0.03414812758336261
0.661249999999955, -0.03417633020156785
0.6614999999999549, -0.034199999511537627
0.661749999999955, -0.03421875184269618
0.6619999999999548, -0.0342326005390845
0.6622499999999549, -0.03424155894474268
0.6624999999999548, -0.0342456404037117
0.6627499999999549, -0.034244858260032984
0.6629999999999547, -0.03423922585774708
0.6632499999999548, -0.03422875654089408
0.6634999999999547, -0.03421346365351585
0.6637499999999548, -0.034193360539652495
0.6639999999999546, -0.03416846746431812
0.6642499999999547, -0.03413964285199933
0.6644999999999546, -0.03410937334595454
0.6647499999999547, -0.034080332715601624
0.6649999999999545, -0.034055194730356675
0.6652499999999546, -0.034036633159636676
0.6654999999999545, -0.03402732177285861
0.6657499999999545, -0.03402993433943857
0.6659999999999544, -0.03404714462879488
0.6662499999999545, -0.03408162641034318
0.6664999999999544, -0.03413605345350135
0.6667499999999544, -0.03421289056771659
0.6669999999999543, -0.03430857986591862
0.6672499999999544, -0.03441277560483691
0.6674999999999542, -0.0345147693627621
0.6677499999999543, -0.03460385271798616
0.6679999999999542, -0.03466931724880151
0.6682499999999543, -0.034700454533499236
0.6684999999999541, -0.03468655615037042
0.6687499999999542, -0.03461691367770836
0.6689999999999541, -0.034480818693803705
0.6692499999999542, -0.034267562776948424
0.669499999999954, -0.03396803085116362
0.6697499999999541, -0.033592193961186734
0.669999999999954, -0.033162609729250114
0.670249999999954, -0.03270205816497862
0.6704999999999539, -0.03223331927799711
0.670749999999954, -0.031779173077930434
0.6709999999999539, -0.03136239957440434
0.6712499999999539, -0.031005778777041915
0.6714999999999538, -0.030732090695470227
0.6717499999999539, -0.030564115339313247
0.6719999999999537, -0.030524632718195388
0.6722499999999538, -0.03063095940785887
0.6724999999999537, -0.030867273494624037
0.6727499999999538, -0.031205325099703085
0.6729999999999536, -0.031616842329676764
0.6732499999999537, -0.0320735532911276
0.6734999999999536, -0.032547186090638114
0.6737499999999537, -0.033009468834789946
0.6739999999999535, -0.03343212963016562
0.6742499999999536, -0.033786896583347215
0.6744999999999535, -0.034045497800915925
0.6747499999999536, -0.03417966384702309
0.6749999999999534, -0.034171047749731454
0.6752499999999535, -0.034033796330377175
0.6754999999999534, -0.03378869752184199
0.6757499999999534, -0.033456539257007645
0.6759999999999533, -0.03305810946875587
0.6762499999999534, -0.032614196089968406
0.6764999999999532, -0.0321455870535261
0.6767499999999533, -0.03167307029231159
0.6769999999999532, -0.031217433739206157
0.6772499999999533, -0.030799465327091546
0.6774999999999531, -0.03043987472566423
0.6777499999999532, -0.030151628453508383
0.6779999999999531, -0.029933504023671453
0.6782499999999532, -0.029782761321418327
0.678499999999953, -0.029696660232014338
0.6787499999999531, -0.029672460640724374
0.678999999999953, -0.029707422432813768
0.6792499999999531, -0.02979880549354652
0.6794999999999529, -0.029943869708187965
0.679749999999953, -0.030139874962003432
0.6799999999999529, -0.030384081140257813
0.680249999999953, -0.030673621117111693
0.6804999999999528, -0.031002341183352655
0.6807499999999529, -0.03136058428405741
0.6809999999999528, -0.0317385229452829
0.6812499999999528, -0.03212632969308782
0.6814999999999527, -0.03251417705353221
0.6817499999999528, -0.03289223755267301
0.6819999999999526, -0.033250683716570695
0.6822499999999527, -0.033579688071281755
0.6824999999999526, -0.033869423142865784
0.6827499999999527, -0.03411006145738149
0.6829999999999525, -0.034292671762117255
0.6832499999999526, -0.03441826043065621
0.6834999999999525, -0.03449402398732593
0.6837499999999526, -0.03452725262704437
0.6839999999999524, -0.03452523654472994
0.6842499999999525, -0.03449526593530061
0.6844999999999524, -0.03444463099367567
0.6847499999999525, -0.03438062191477309
0.6849999999999523, -0.03431052889351083
0.6852499999999524, -0.03424164212480685
0.6854999999999523, -0.03418125180358089
0.6857499999999523, -0.03413558366350333
0.6859999999999522, -0.03410481809974364
0.6862499999999523, -0.034087004115553654
0.6864999999999521, -0.03408018831299087
0.6867499999999522, -0.03408241729411676
0.6869999999999521, -0.034091737660989274
0.6872499999999522, -0.03410619601566811
0.687499999999952, -0.03412383896021298
0.6877499999999521, -0.03414271309668271
0.687999999999952, -0.034160865027137
0.6882499999999521, -0.03417634163806982
0.6884999999999519, -0.034187720803779964
0.688749999999952, -0.034195213126338775
0.6889999999999519, -0.034199342002589894
0.689249999999952, -0.0342006308293783
0.6894999999999518, -0.03419960300354763
0.6897499999999519, -0.03419678192194375
0.6899999999999518, -0.03419269098140987
0.6902499999999518, -0.03418785357879095
0.6904999999999517, -0.03418279311093109
0.6907499999999518, -0.0341780329746757
0.6909999999999517, -0.034174093796509375
0.6912499999999517, -0.03417126843114371
0.6914999999999516, -0.03416945584123887
0.6917499999999517, -0.034168515837360136
0.6919999999999515, -0.03416830823006922
0.6922499999999516, -0.03416869282993007
0.6924999999999515, -0.0341695294475044
0.6927499999999516, -0.03417067789335615
0.6929999999999514, -0.034171997978048374
0.6932499999999515, -0.03417334951214279
0.6934999999999514, -0.0341745923062029
0.6937499999999515, -0.03417558980051627
0.6939999999999513, -0.034176290162751144
0.6942499999999514, -0.03417672698472707
0.6944999999999513, -0.03417693762734997
0.6947499999999514, -0.03417695945152266
0.6949999999999512, -0.0341768298181484
0.6952499999999513, -0.03417658608813223
0.6954999999999512, -0.03417626562237697
0.6957499999999512, -0.0341759057817872
0.6959999999999511, -0.03417554392726485
0.6962499999999512, -0.03417521741971585
0.696499999999951, -0.03417496094230543
0.6967499999999511, -0.03417478164310728
0.696999999999951, -0.034174670475353164
0.6972499999999511, -0.034174618184864336
0.6974999999999509, -0.03417461551746248
0.697749999999951, -0.03417465321897106
0.6979999999999509, -0.034174722035211325
0.698249999999951, -0.03417481271200584
0.6984999999999508, -0.03417491599517586
0.6987499999999509, -0.03417502263054395
0.6989999999999508, -0.03417512336393225
0.6992499999999509, -0.03417521004331592
0.6994999999999507, -0.034175280380690065
0.6997499999999508, -0.03417533403060524
0.6999999999999507, -0.03417537064886966
0.7002499999999507, -0.0341753898912911
0.7004999999999506, -0.03417539141367687
0.7007499999999507, -0.03417537487183564
0.7009999999999506, -0.034175339921576064
0.7012499999999506, -0.034175286218705025
0.7014999999999505, -0.034175213419031625
0.7017499999999506, -0.03417512118077504
0.7019999999999504, -0.034175011651894405
0.7022499999999505, -0.03417489417235364
0.7024999999999504, -0.03417477937309821
0.7027499999999505, -0.034174677885074445
0.7029999999999503, -0.0341746003392287
0.7032499999999504, -0.0341745573665051
0.7034999999999503, -0.03417455959785176
0.7037499999999504, -0.03417461766421326
0.7039999999999502, -0.03417474219653638
0.7042499999999503, -0.03417494382576658
0.7044999999999502, -0.03417523291053115
0.7047499999999502, -0.03417560093286198
0.7049999999999501, -0.034176008555470094
0.7052499999999502, -0.03417641359876278
0.7054999999999501, -0.034176773883150435
0.7057499999999501, -0.034177047229039026
0.70599999999995, -0.03417719145683851
0.7062499999999501, -0.034177164386956616
0.70649999999995, -0.034176923839801976
0.70674999999995, -0.03417642763578188
0.7069999999999499, -0.03417563359530584
0.70724999999995, -0.03417450418340895
0.7074999999999498, -0.03417310008727359
0.7077499999999499, -0.034171575661319675
0.7079999999999498, -0.03417008899296814
0.7082499999999499, -0.0341687981696408
0.7084999999999497, -0.034167861278757705
0.7087499999999498, -0.034167436407740226
0.7089999999999497, -0.034167681644009296
0.7092499999999498, -0.0341687550749854
0.7094999999999496, -0.034170814788089476
0.7097499999999497, -0.03417401887074201
0.7099999999999496, -0.034178478382432154
0.7102499999999496, -0.03418385518045186
0.7104999999999495, -0.034189561760577636
0.7107499999999496, -0.034195007952715795
0.7109999999999495, -0.03419960358677576
0.7112499999999495, -0.03420275849266474
0.7114999999999494, -0.03420388250029216
0.7117499999999495, -0.034202385439564775
0.7119999999999493, -0.03419767714039157
0.7122499999999494, -0.034189167432680634
0.7124999999999493, -0.034176266146339174
0.7127499999999494, -0.034158753579544676
0.7129999999999492, -0.03413825743117416
0.7132499999999493, -0.03411698011113362
0.7134999999999492, -0.034097124212368435
0.7137499999999493, -0.03408089232782485
0.7139999999999491, -0.034070487050450016
0.7142499999999492, -0.03406811097319018
0.7144999999999491, -0.03407596668899249
0.7147499999999491, -0.03409625679080275
0.714999999999949, -0.034131183871568105
0.7152499999999491, -0.034182946618646515
0.715499999999949, -0.034251246151622894
0.715749999999949, -0.03432900222003932
0.7159999999999489, -0.03440799462219957
0.716249999999949, -0.03448000315641142
0.7164999999999488, -0.034536807620979104
0.7167499999999489, -0.034570187814208175
0.7169999999999488, -0.03457192353440419
0.7172499999999489, -0.034533794579873156
0.7174999999999487, -0.034447580748920625
0.7177499999999488, -0.03430506183985127
0.7179999999999487, -0.03409815281231321
0.7182499999999488, -0.033826766254059226
0.7184999999999486, -0.03350314707201063
0.7187499999999487, -0.03314059357220689
0.7189999999999486, -0.03275240406068969
0.7192499999999487, -0.03235187684349716
0.7194999999999485, -0.031952310226670555
0.7197499999999486, -0.03156700251625022
0.7199999999999485, -0.03120925201827518
0.7202499999999485, -0.03089235703878579
0.7204999999999484, -0.030629615883822847
0.7207499999999485, -0.03043371139924611
0.7209999999999483, -0.030305489387442375
0.7212499999999484, -0.030235119206688754
0.7214999999999483, -0.030212387650101036
0.7217499999999484, -0.03022708151079634
0.7219999999999482, -0.030268987581891338
0.7222499999999483, -0.030327892656502264
0.7224999999999482, -0.030393583527745793
0.7227499999999483, -0.030455846988739932
0.7229999999999481, -0.03050446983259869
0.7232499999999482, -0.03052923885244141
0.7234999999999481, -0.03052133914589117
0.7237499999999482, -0.030484380958740065
0.723999999999948, -0.030428481767719173
0.7242499999999481, -0.030363816186532055
0.724499999999948, -0.030300558828880497
0.724749999999948, -0.03024888430846495
0.7249999999999479, -0.03021896723898987
0.725249999999948, -0.030220982234155702
0.7254999999999479, -0.030265103907665125
0.7257499999999479, -0.03036150687322081
0.7259999999999478, -0.03052036574452366
0.7262499999999479, -0.030748548700342493
0.7264999999999477, -0.031037465086415583
0.7267499999999478, -0.031374010105786
0.7269999999999477, -0.03174507841832064
0.7272499999999478, -0.03213756468388462
0.7274999999999476, -0.03253836356234485
0.7277499999999477, -0.03293436971356689
0.7279999999999476, -0.03331247779741675
0.7282499999999477, -0.03365958247376177
0.7284999999999475, -0.03396257840246664
0.7287499999999476, -0.03420837237802532
0.7289999999999475, -0.03438907434648941
0.7292499999999476, -0.03451008092092023
0.7294999999999474, -0.03457887903257095
0.7297499999999475, -0.034602955612691666
0.7299999999999474, -0.034589797592532445
0.7302499999999474, -0.034546891903345145
0.7304999999999473, -0.034481725476381175
0.7307499999999474, -0.034401785242889726
0.7309999999999472, -0.034314558134123097
0.7312499999999473, -0.03422753108133225
0.7314999999999472, -0.034148138488708124
