0.00000, 0.13889
0.00100, 0.12969
0.00200, 0.12069
0.00300, 0.11209
0.00400, 0.10410
0.00500, 0.09691
0.00600, 0.09072
0.00700, 0.08575
0.00800, 0.08217
0.00900, 0.08012
0.01000, 0.07964
0.01100, 0.08077
0.01200, 0.08355
0.01300, 0.08802
0.01400, 0.09422
0.01500, 0.10219
0.01600, 0.11191
0.01700, 0.12308
0.01800, 0.13532
0.01900, 0.14829
0.02000, 0.16161
0.02100, 0.17493
0.02200, 0.18787
0.02300, 0.20007
0.02400, 0.21114
0.02500, 0.22068
0.02600, 0.22825
0.02700, 0.23345
0.02800, 0.23587
0.02900, 0.23508
0.03000, 0.23067
0.03100, 0.22247
0.03200, 0.21123
0.03300, 0.19793
0.03400, 0.18354
0.03500, 0.16905
0.03600, 0.15543
0.03700, 0.14366
0.03800, 0.13470
0.03900, 0.12883
0.04000, 0.12573
0.04100, 0.12503
0.04200, 0.12636
0.04300, 0.12937
0.04400, 0.13369
0.04500, 0.13897
0.04600, 0.14484
0.04700, 0.15099
0.04800, 0.15710
0.04900, 0.16286
0.05000, 0.16794
0.05100, 0.17204
0.05200, 0.17484
0.05300, 0.17604
0.05400, 0.17578
0.05500, 0.17464
0.05600, 0.17317
0.05700, 0.17197
0.05800, 0.17161
0.05900, 0.17266
0.06000, 0.17571
0.06100, 0.18115
0.06200, 0.18871
0.06300, 0.19798
0.06400, 0.20852
0.06500, 0.21992
0.06600, 0.23174
0.06700, 0.24357
0.06800, 0.25498
0.06900, 0.26566
0.07000, 0.27545
0.07100, 0.28413
0.07200, 0.29154
0.07300, 0.29749
0.07400, 0.30178
0.07500, 0.30425
0.07600, 0.30470
0.07700, 0.30299
0.07800, 0.29898
0.07900, 0.29252
0.08000, 0.28348
0.08100, 0.27172
0.08200, 0.25708
0.08300, 0.23946
0.08400, 0.21932
0.08500, 0.19765
0.08600, 0.17546
0.08700, 0.15377
0.08800, 0.13359
0.08900, 0.11593
0.09000, 0.10181
0.09100, 0.09201
0.09200, 0.08647
0.09300, 0.08494
0.09400, 0.08718
0.09500, 0.09292
0.09600, 0.10192
0.09700, 0.11392
0.09800, 0.12866
0.09900, 0.14546
0.10000, 0.16329
0.10100, 0.18108
0.10200, 0.19779
0.10300, 0.21237
0.10400, 0.22375
0.10500, 0.23089
0.10600, 0.23308
0.10700, 0.23083
0.10800, 0.22496
0.10900, 0.21627
0.11000, 0.20555
0.11100, 0.19362
0.11200, 0.18128
0.11300, 0.16931
0.11400, 0.15819
0.11500, 0.14814
0.11600, 0.13934
0.11700, 0.13198
0.11800, 0.12626
0.11900, 0.12236
0.12000, 0.12049
0.12100, 0.12074
0.12200, 0.12292
0.12300, 0.12677
0.12400, 0.13202
0.12500, 0.13841
0.12600, 0.14566
0.12700, 0.15352
0.12800, 0.16172
0.12900, 0.17004
0.13000, 0.17831
0.13100, 0.18634
0.13200, 0.19396
0.13300, 0.20099
0.13400, 0.20725
0.13500, 0.21257
0.13600, 0.21684
0.13700, 0.22019
0.13800, 0.22281
0.13900, 0.22491
0.14000, 0.22666
0.14100, 0.22827
0.14200, 0.22992
0.14300, 0.23179
0.14400, 0.23380
0.14500, 0.23562
0.14600, 0.23693
0.14700, 0.23741
0.14800, 0.23671
0.14900, 0.23452
0.15000, 0.23050
0.15100, 0.22445
0.15200, 0.21663
0.15300, 0.20735
0.15400, 0.19696
0.15500, 0.18579
0.15600, 0.17418
0.15700, 0.16247
0.15800, 0.15099
0.15900, 0.14006
0.16000, 0.12995
0.16100, 0.12097
0.16200, 0.11341
0.16300, 0.10756
0.16400, 0.10370
0.16500, 0.10213
0.16600, 0.10300
0.16700, 0.10595
0.16800, 0.11054
0.16900, 0.11630
0.17000, 0.12279
0.17100, 0.12956
0.17200, 0.13614
0.17300, 0.14210
0.17400, 0.14735
0.17500, 0.15211
0.17600, 0.15657
0.17700, 0.16098
0.17800, 0.16553
0.17900, 0.17045
0.18000, 0.17596
0.18100, 0.18215
0.18200, 0.18869
0.18300, 0.19516
0.18400, 0.20115
0.18500, 0.20626
0.18600, 0.21005
0.18700, 0.21211
0.18800, 0.21206
0.18900, 0.20992
0.19000, 0.20607
0.19100, 0.20092
0.19200, 0.19487
0.19300, 0.18831
0.19400, 0.18163
0.19500, 0.17525
0.19600, 0.16944
0.19700, 0.16416
0.19800, 0.15927
0.19900, 0.15464
0.20000, 0.15014
0.20100, 0.14563
0.20200, 0.14099
0.20300, 0.13609
0.20400, 0.13094
0.20500, 0.12566
0.20600, 0.12039
0.20700, 0.11525
0.20800, 0.11037
0.20900, 0.10588
0.21000, 0.10190
0.21100, 0.09857
0.21200, 0.09603
0.21300, 0.09442
0.21400, 0.09388
0.21500, 0.09456
0.21600, 0.09659
0.21700, 0.10013
0.21800, 0.10529
0.21900, 0.11190
0.22000, 0.11953
0.22100, 0.12774
0.22200, 0.13610
0.22300, 0.14416
0.22400, 0.15149
0.22500, 0.15765
0.22600, 0.16235
0.22700, 0.16580
0.22800, 0.16829
0.22900, 0.17014
0.23000, 0.17163
0.23100, 0.17307
0.23200, 0.17476
0.23300, 0.17699
0.23400, 0.17991
0.23500, 0.18353
0.23600, 0.18789
0.23700, 0.19299
0.23800, 0.19885
0.23900, 0.20551
0.24000, 0.21296
0.24100, 0.22110
0.24200, 0.22938
0.24300, 0.23715
0.24400, 0.24378
0.24500, 0.24863
0.24600, 0.25106
0.24700, 0.25044
0.24800, 0.24617
0.24900, 0.23852
0.25000, 0.22842
0.25100, 0.21685
0.25200, 0.20477
0.25300, 0.19315
0.25400, 0.18293
0.25500, 0.17511
0.25600, 0.17035
0.25700, 0.16849
0.25800, 0.16918
0.25900, 0.17209
0.26000, 0.17685
0.26100, 0.18315
0.26200, 0.19062
0.26300, 0.19891
0.26400, 0.20753
0.26500, 0.21582
0.26600, 0.22317
0.26700, 0.22893
0.26800, 0.23247
0.26900, 0.23315
0.27000, 0.23034
0.27100, 0.22370
0.27200, 0.21386
0.27300, 0.20159
0.27400, 0.18770
0.27500, 0.17298
0.27600, 0.15823
0.27700, 0.14425
0.27800, 0.13179
0.27900, 0.12125
0.28000, 0.11271
0.28100, 0.10624
0.28200, 0.10191
0.28300, 0.09979
0.28400, 0.09995
0.28500, 0.10248
0.28600, 0.10729
0.28700, 0.11392
0.28800, 0.12180
0.28900, 0.13038
0.29000, 0.13909
0.29100, 0.14738
0.29200, 0.15469
0.29300, 0.16049
0.29400, 0.16473
0.29500, 0.16774
0.29600, 0.16984
0.29700, 0.17136
0.29800, 0.17265
0.29900, 0.17402
0.30000, 0.17583
0.30100, 0.17831
0.30200, 0.18154
0.30300, 0.18553
0.30400, 0.19028
0.30500, 0.19581
0.30600, 0.20213
0.30700, 0.20926
0.30800, 0.21720
0.30900, 0.22573
0.31000, 0.23447
0.31100, 0.24303
0.31200, 0.25103
0.31300, 0.25808
0.31400, 0.26379
0.31500, 0.26778
0.31600, 0.26980
0.31700, 0.26999
0.31800, 0.26858
0.31900, 0.26580
0.32000, 0.26187
0.32100, 0.25701
0.32200, 0.25146
0.32300, 0.24542
0.32400, 0.23900
0.32500, 0.23221
0.32600, 0.22506
0.32700, 0.21757
0.32800, 0.20973
0.32900, 0.20157
0.33000, 0.19310
0.33100, 0.18437
0.33200, 0.17561
0.33300, 0.16709
0.33400, 0.15906
0.33500, 0.15177
0.33600, 0.14549
0.33700, 0.14046
0.33800, 0.13694
0.33900, 0.13487
0.34000, 0.13401
0.34100, 0.13411
0.34200, 0.13491
0.34300, 0.13617
0.34400, 0.13763
0.34500, 0.13903
0.34600, 0.14024
0.34700, 0.14143
0.34800, 0.14282
0.34900, 0.14466
0.35000, 0.14717
0.35100, 0.15059
0.35200, 0.15514
0.35300, 0.16103
0.35400, 0.16812
0.35500, 0.17600
0.35600, 0.18427
0.35700, 0.19251
0.35800, 0.20031
0.35900, 0.20725
0.36000, 0.21294
0.36100, 0.21707
0.36200, 0.21968
0.36300, 0.22090
0.36400, 0.22082
0.36500, 0.21955
0.36600, 0.21720
0.36700, 0.21388
0.36800, 0.20970
0.36900, 0.20501
0.37000, 0.20031
0.37100, 0.19611
0.37200, 0.19292
0.37300, 0.19125
0.37400, 0.19160
0.37500, 0.19449
0.37600, 0.20004
0.37700, 0.20735
0.37800, 0.21533
0.37900, 0.22288
0.38000, 0.22891
0.38100, 0.23232
0.38200, 0.23204
0.38300, 0.22704
0.38400, 0.21746
0.38500, 0.20426
0.38600, 0.18844
0.38700, 0.17098
0.38800, 0.15286
0.38900, 0.13506
0.39000, 0.11859
0.39100, 0.10418
0.39200, 0.09199
0.39300, 0.08203
0.39400, 0.07433
0.39500, 0.06892
0.39600, 0.06583
0.39700, 0.06508
0.39800, 0.06669
0.39900, 0.07049
0.40000, 0.07616
0.40100, 0.08341
0.40200, 0.09191
0.40300, 0.10136
0.40400, 0.11145
0.40500, 0.12186
0.40600, 0.13223
0.40700, 0.14196
0.40800, 0.15043
0.40900, 0.15702
0.41000, 0.16112
0.41100, 0.16210
0.41200, 0.15934
0.41300, 0.15231
0.41400, 0.14148
0.41500, 0.12805
0.41600, 0.11325
0.41700, 0.09828
0.41800, 0.08436
0.41900, 0.07272
0.42000, 0.06457
0.42100, 0.06063
0.42200, 0.06027
0.42300, 0.06263
0.42400, 0.06688
0.42500, 0.07215
0.42600, 0.07760
0.42700, 0.08238
0.42800, 0.08570
0.42900, 0.08776
0.43000, 0.08942
0.43100, 0.09156
0.43200, 0.09507
0.43300, 0.10082
0.43400, 0.10969
0.43500, 0.12256
0.43600, 0.13977
0.43700, 0.16019
0.43800, 0.18246
0.43900, 0.20522
0.44000, 0.22711
0.44100, 0.24677
0.44200, 0.26284
0.44300, 0.27403
0.44400, 0.28021
0.44500, 0.28200
0.44600, 0.28004
0.44700, 0.27497
0.44800, 0.26744
0.44900, 0.25808
0.45000, 0.24755
0.45100, 0.23642
0.45200, 0.22506
0.45300, 0.21385
0.45400, 0.20315
0.45500, 0.19331
0.45600, 0.18470
0.45700, 0.17767
0.45800, 0.17256
0.45900, 0.16936
0.46000, 0.16782
0.46100, 0.16768
0.46200, 0.16869
0.46300, 0.17059
0.46400, 0.17314
0.46500, 0.17607
0.46600, 0.17918
0.46700, 0.18230
0.46800, 0.18532
0.46900, 0.18810
0.47000, 0.19051
0.47100, 0.19243
0.47200, 0.19372
0.47300, 0.19426
0.47400, 0.19398
0.47500, 0.19289
0.47600, 0.19097
0.47700, 0.18821
0.47800, 0.18459
0.47900, 0.18011
0.48000, 0.17476
0.48100, 0.16863
0.48200, 0.16212
0.48300, 0.15566
0.48400, 0.14969
0.48500, 0.14465
0.48600, 0.14095
0.48700, 0.13905
0.48800, 0.13933
0.48900, 0.14171
0.49000, 0.14577
0.49100, 0.15109
0.49200, 0.15724
0.49300, 0.16382
0.49400, 0.17039
0.49500, 0.17655
0.49600, 0.18195
0.49700, 0.18651
0.49800, 0.19017
0.49900, 0.19285
0.50000, 0.19450
0.50100, 0.19506
0.50200, 0.19447
0.50300, 0.19269
0.50400, 0.18994
0.50500, 0.18662
0.50600, 0.18315
0.50700, 0.17992
0.50800, 0.17734
0.50900, 0.17581
0.51000, 0.17573
0.51100, 0.17728
0.51200, 0.18003
0.51300, 0.18347
0.51400, 0.18710
0.51500, 0.19041
0.51600, 0.19288
0.51700, 0.19401
0.51800, 0.19331
0.51900, 0.19063
0.52000, 0.18604
0.52100, 0.17960
0.52200, 0.17136
0.52300, 0.16141
0.52400, 0.14979
0.52500, 0.13658
0.52600, 0.12203
0.52700, 0.10684
0.52800, 0.09179
0.52900, 0.07765
0.53000, 0.06519
0.53100, 0.05520
0.53200, 0.04844
0.53300, 0.04562
0.53400, 0.04670
0.53500, 0.05112
0.53600, 0.05836
0.53700, 0.06785
0.53800, 0.07905
0.53900, 0.09141
0.54000, 0.10439
0.54100, 0.11754
0.54200, 0.13068
0.54300, 0.14364
0.54400, 0.15627
0.54500, 0.16843
0.54600, 0.17995
0.54700, 0.19069
0.54800, 0.20050
0.54900, 0.20940
0.55000, 0.21750
0.55100, 0.22492
0.55200, 0.23178
0.55300, 0.23819
0.55400, 0.24426
0.55500, 0.25012
0.55600, 0.25577
0.55700, 0.26093
0.55800, 0.26529
0.55900, 0.26854
0.56000, 0.27038
0.56100, 0.27050
0.56200, 0.26858
0.56300, 0.26434
0.56400, 0.25789
0.56500, 0.24957
0.56600, 0.23971
0.56700, 0.22866
0.56800, 0.21675
0.56900, 0.20432
0.57000, 0.19172
0.57100, 0.17926
0.57200, 0.16721
0.57300, 0.15582
0.57400, 0.14535
0.57500, 0.13607
0.57600, 0.12822
0.57700, 0.12207
0.57800, 0.11786
0.57900, 0.11564
0.58000, 0.11535
0.58100, 0.11692
0.58200, 0.12029
0.58300, 0.12540
0.58400, 0.13218
0.58500, 0.14056
0.58600, 0.15036
0.58700, 0.16110
0.58800, 0.17224
0.58900, 0.18327
0.59000, 0.19366
0.59100, 0.20289
0.59200, 0.21044
0.59300, 0.21581
0.59400, 0.21885
0.59500, 0.21963
0.59600, 0.21823
0.59700, 0.21470
0.59800, 0.20911
0.59900, 0.20154
0.60000, 0.19205
0.60100, 0.18090
0.60200, 0.16881
0.60300, 0.15655
0.60400, 0.14490
0.60500, 0.13465
0.60600, 0.12655
0.60700, 0.12139
0.60800, 0.11988
0.60900, 0.12193
0.61000, 0.12699
0.61100, 0.13450
0.61200, 0.14390
0.61300, 0.15465
0.61400, 0.16617
0.61500, 0.17791
0.61600, 0.18936
0.61700, 0.20014
0.61800, 0.20987
0.61900, 0.21817
0.62000, 0.22467
0.62100, 0.22899
0.62200, 0.23076
0.62300, 0.22968
0.62400, 0.22627
0.62500, 0.22154
0.62600, 0.21650
0.62700, 0.21216
0.62800, 0.20954
0.62900, 0.20964
0.63000, 0.21348
0.63100, 0.22125
0.63200, 0.23136
0.63300, 0.24197
0.63400, 0.25123
0.63500, 0.25729
0.63600, 0.25831
0.63700, 0.25245
0.63800, 0.23810
0.63900, 0.21602
0.64000, 0.18837
0.64100, 0.15734
0.64200, 0.12510
0.64300, 0.09383
0.64400, 0.06571
0.64500, 0.04292
0.64600, 0.02676
0.64700, 0.01663
0.64800, 0.01167
0.64900, 0.01102
0.65000, 0.01383
0.65100, 0.01923
0.65200, 0.02637
0.65300, 0.03448
0.65400, 0.04354
0.65500, 0.05404
0.65600, 0.06643
0.65700, 0.08120
0.65800, 0.09880
0.65900, 0.11970
0.66000, 0.14439
0.66100, 0.17273
0.66200, 0.20335
0.66300, 0.23471
0.66400, 0.26528
0.66500, 0.29349
0.66600, 0.31782
0.66700, 0.33673
0.66800, 0.34881
0.66900, 0.35419
0.67000, 0.35386
0.67100, 0.34880
0.67200, 0.34001
0.67300, 0.32849
0.67400, 0.31522
0.67500, 0.30120
0.67600, 0.28716
0.67700, 0.27331
0.67800, 0.25976
0.67900, 0.24666
0.68000, 0.23412
0.68100, 0.22227
0.68200, 0.21124
0.68300, 0.20112
0.68400, 0.19159
0.68500, 0.18212
0.68600, 0.17215
0.68700, 0.16114
0.68800, 0.14855
0.68900, 0.13384
0.69000, 0.11647
0.69100, 0.09653
0.69200, 0.07546
0.69300, 0.05487
0.69400, 0.03638
0.69500, 0.02159
0.69600, 0.01211
0.69700, 0.00956
0.69800, 0.01534
0.69900, 0.02890
0.70000, 0.04859
0.70100, 0.07276
0.70200, 0.09975
0.70300, 0.12790
0.70400, 0.15555
0.70500, 0.18106
0.70600, 0.20325
0.70700, 0.22202
0.70800, 0.23736
0.70900, 0.24927
0.71000, 0.25777
0.71100, 0.26286
0.71200, 0.26454
0.71300, 0.26284
0.71400, 0.25788
0.71500, 0.24986
0.71600, 0.23898
0.71700, 0.22544
0.71800, 0.20943
0.71900, 0.19116
0.72000, 0.17081
0.72100, 0.14881
0.72200, 0.12600
0.72300, 0.10329
0.72400, 0.08158
0.72500, 0.06178
0.72600, 0.04478
0.72700, 0.03150
0.72800, 0.02274
0.72900, 0.01837
0.73000, 0.01776
0.73100, 0.02029
0.73200, 0.02533
0.73300, 0.03223
0.73400, 0.04036
0.73500, 0.04910
0.73600, 0.05786
0.73700, 0.06617
0.73800, 0.07355
0.73900, 0.07955
0.74000, 0.08369
0.74100, 0.08552
0.74200, 0.08456
0.74300, 0.08043
0.74400, 0.07342
0.74500, 0.06419
0.74600, 0.05340
0.74700, 0.04172
0.74800, 0.02982
0.74900, 0.01835
0.75000, 0.00797
0.75100, -0.00079
0.75200, -0.00775
0.75300, -0.01274
0.75400, -0.01559
0.75500, -0.01614
0.75600, -0.01423
0.75700, -0.00969
0.75800, -0.00238
0.75900, 0.00776
0.76000, 0.02072
0.76100, 0.03647
0.76200, 0.05502
0.76300, 0.07634
0.76400, 0.10043
0.76500, 0.12728
0.76600, 0.15649
0.76700, 0.18697
0.76800, 0.21750
0.76900, 0.24689
0.77000, 0.27394
0.77100, 0.29746
0.77200, 0.31624
0.77300, 0.32924
0.77400, 0.33674
0.77500, 0.33972
0.77600, 0.33918
0.77700, 0.33609
0.77800, 0.33146
0.77900, 0.32626
0.78000, 0.32149
0.78100, 0.31757
0.78200, 0.31387
0.78300, 0.30961
0.78400, 0.30402
0.78500, 0.29635
0.78600, 0.28582
0.78700, 0.27167
0.78800, 0.25332
0.78900, 0.23177
0.79000, 0.20889
0.79100, 0.18652
0.79200, 0.16652
0.79300, 0.15075
0.79400, 0.14106
0.79500, 0.13928
0.79600, 0.14599
0.79700, 0.15926
0.79800, 0.17689
0.79900, 0.19667
0.80000, 0.21639
0.80100, 0.23385
0.80200, 0.24685
0.80300, 0.25342
0.80400, 0.25371
0.80500, 0.24891
0.80600, 0.24024
0.80700, 0.22890
0.80800, 0.21612
0.80900, 0.20311
0.81000, 0.19106
0.81100, 0.18080
0.81200, 0.17238
0.81300, 0.16577
0.81400, 0.16095
0.81500, 0.15789
0.81600, 0.15655
0.81700, 0.15692
0.81800, 0.15892
0.81900, 0.16214
0.82000, 0.16602
0.82100, 0.16997
0.82200, 0.17342
0.82300, 0.17579
0.82400, 0.17650
0.82500, 0.17499
0.82600, 0.17110
0.82700, 0.16552
0.82800, 0.15902
0.82900, 0.15236
0.83000, 0.14630
0.83100, 0.14163
0.83200, 0.13909
0.83300, 0.13936
0.83400, 0.14221
0.83500, 0.14699
0.83600, 0.15303
0.83700, 0.15968
0.83800, 0.16627
0.83900, 0.17215
0.84000, 0.17666
0.84100, 0.17936
0.84200, 0.18027
0.84300, 0.17941
0.84400, 0.17683
0.84500, 0.17257
0.84600, 0.16669
0.84700, 0.15921
0.84800, 0.15020
0.84900, 0.13983
0.85000, 0.12832
0.85100, 0.11590
0.85200, 0.10281
0.85300, 0.08925
0.85400, 0.07547
0.85500, 0.06169
0.85600, 0.04827
0.85700, 0.03579
0.85800, 0.02489
0.85900, 0.01617
0.86000, 0.01026
0.86100, 0.00777
0.86200, 0.00933
0.86300, 0.01543
0.86400, 0.02565
0.86500, 0.03914
0.86600, 0.05501
0.86700, 0.07240
0.86800, 0.09044
0.86900, 0.10825
0.87000, 0.12498
0.87100, 0.14003
0.87200, 0.15334
0.87300, 0.16489
0.87400, 0.17468
0.87500, 0.18268
0.87600, 0.18888
0.87700, 0.19327
0.87800, 0.19588
0.87900, 0.19718
0.88000, 0.19784
0.88100, 0.19852
0.88200, 0.19988
0.88300, 0.20260
0.88400, 0.20733
0.88500, 0.21475
0.88600, 0.22492
0.88700, 0.23688
0.88800, 0.24952
0.88900, 0.26179
0.89000, 0.27258
0.89100, 0.28082
0.89200, 0.28543
0.89300, 0.28547
0.89400, 0.28117
0.89500, 0.27333
0.89600, 0.26273
0.89700, 0.25016
0.89800, 0.23641
0.89900, 0.22227
0.90000, 0.20853
0.90100, 0.19580
0.90200, 0.18439
0.90300, 0.17458
0.90400, 0.16666
0.90500, 0.16090
0.90600, 0.15759
0.90700, 0.15700
0.90800, 0.15940
0.90900, 0.16479
0.91000, 0.17311
0.91100, 0.18427
0.91200, 0.19818
0.91300, 0.21477
0.91400, 0.23395
0.91500, 0.25565
0.91600, 0.27936
0.91700, 0.30390
0.91800, 0.32800
0.91900, 0.35041
0.92000, 0.36986
0.92100, 0.38509
0.92200, 0.39484
0.92300, 0.39807
0.92400, 0.39547
0.92500, 0.38849
0.92600, 0.37860
0.92700, 0.36727
0.92800, 0.35597
0.92900, 0.34617
0.93000, 0.33932
0.93100, 0.33592
0.93200, 0.33485
0.93300, 0.33482
0.93400, 0.33454
0.93500, 0.33272
0.93600, 0.32808
0.93700, 0.31932
0.93800, 0.30534
0.93900, 0.28632
0.94000, 0.26306
0.94100, 0.23634
0.94200, 0.20697
0.94300, 0.17572
0.94400, 0.14339
0.94500, 0.11077
0.94600, 0.07882
0.94700, 0.04881
0.94800, 0.02201
0.94900, -0.00028
0.95000, -0.01679
0.95100, -0.02623
0.95200, -0.02732
0.95300, -0.01898
0.95400, -0.00166
0.95500, 0.02349
0.95600, 0.05534
0.95700, 0.09275
0.95800, 0.13457
0.95900, 0.17966
0.96000, 0.22689
0.96100, 0.27501
0.96200, 0.32261
0.96300, 0.36826
0.96400, 0.41052
0.96500, 0.44797
0.96600, 0.47918
0.96700, 0.50273
0.96800, 0.51739
0.96900, 0.52358
0.97000, 0.52238
0.97100, 0.51491
0.97200, 0.50227
0.97300, 0.48557
0.97400, 0.46590
0.97500, 0.44438
0.97600, 0.42175
0.97700, 0.39823
0.97800, 0.37395
0.97900, 0.34908
0.98000, 0.32375
0.98100, 0.29812
0.98200, 0.27234
0.98300, 0.24660
0.98400, 0.22140
0.98500, 0.19742
0.98600, 0.17530
0.98700, 0.15569
0.98800, 0.13925
0.98900, 0.12663
0.99000, 0.11848
0.99100, 0.11487
0.99200, 0.11497
0.99300, 0.11783
0.99400, 0.12252
0.99500, 0.12810
0.99600, 0.13365
0.99700, 0.13823
0.99800, 0.14103
0.99900, 0.14213
1.00000, 0.14200
1.00100, 0.14112
1.00200, 0.13993
1.00300, 0.13892
1.00400, 0.13854
1.00500, 0.13927
1.00600, 0.14133
1.00700, 0.14463
1.00800, 0.14900
1.00900, 0.15430
1.01000, 0.16038
1.01100, 0.16710
1.01200, 0.17430
1.01300, 0.18184
1.01400, 0.18958
1.01500, 0.19738
1.01600, 0.20511
1.01700, 0.21264
1.01800, 0.21982
1.01900, 0.22653
1.02000, 0.23263
1.02100, 0.23798
1.02200, 0.24244
1.02300, 0.24586
1.02400, 0.24810
1.02500, 0.24902
1.02600, 0.24847
1.02700, 0.24632
1.02800, 0.24245
1.02900, 0.23708
1.03000, 0.23053
1.03100, 0.22313
1.03200, 0.21520
1.03300, 0.20709
1.03400, 0.19911
1.03500, 0.19160
1.03600, 0.18486
1.03700, 0.17914
1.03800, 0.17470
1.03900, 0.17179
1.04000, 0.17068
1.04100, 0.17161
1.04200, 0.17483
1.04300, 0.18049
1.04400, 0.18788
1.04500, 0.19597
1.04600, 0.20371
1.04700, 0.21007
1.04800, 0.21401
1.04900, 0.21449
1.05000, 0.21048
1.05100, 0.20171
1.05200, 0.18912
1.05300, 0.17373
1.05400, 0.15657
1.05500, 0.13865
1.05600, 0.12100
1.05700, 0.10465
1.05800, 0.09053
1.05900, 0.07897
1.06000, 0.07004
1.06100, 0.06382
1.06200, 0.06039
1.06300, 0.05982
1.06400, 0.06219
1.06500, 0.06757
1.06600, 0.07580
1.06700, 0.08637
1.06800, 0.09873
1.06900, 0.11232
1.07000, 0.12661
1.07100, 0.14105
1.07200, 0.15509
1.07300, 0.16820
1.07400, 0.18008
1.07500, 0.19048
1.07600, 0.19916
1.07700, 0.20587
1.07800, 0.21039
1.07900, 0.21245
1.08000, 0.21184
1.08100, 0.20858
1.08200, 0.20310
1.08300, 0.19586
1.08400, 0.18734
1.08500, 0.17800
1.08600, 0.16830
1.08700, 0.15871
1.08800, 0.14967
1.08900, 0.14145
1.09000, 0.13426
1.09100, 0.12832
1.09200, 0.12383
1.09300, 0.12100
1.09400, 0.12004
1.09500, 0.12115
1.09600, 0.12426
1.09700, 0.12890
1.09800, 0.13453
1.09900, 0.14064
1.10000, 0.14672
1.10100, 0.15225
1.10200, 0.15671
1.10300, 0.15967
1.10400, 0.16121
1.10500, 0.16162
1.10600, 0.16120
1.10700, 0.16024
1.10800, 0.15903
1.10900, 0.15786
1.11000, 0.15702
1.11100, 0.15674
1.11200, 0.15717
1.11300, 0.15844
1.11400, 0.16069
1.11500, 0.16404
1.11600, 0.16865
1.11700, 0.17463
1.11800, 0.18209
1.11900, 0.19081
1.12000, 0.20050
1.12100, 0.21085
1.12200, 0.22153
1.12300, 0.23224
1.12400, 0.24268
1.12500, 0.25253
1.12600, 0.26141
1.12700, 0.26888
1.12800, 0.27447
1.12900, 0.27771
1.13000, 0.27815
1.13100, 0.27531
1.13200, 0.26873
1.13300, 0.25814
1.13400, 0.24448
1.13500, 0.22912
1.13600, 0.21344
1.13700, 0.19883
1.13800, 0.18666
1.13900, 0.17832
1.14000, 0.17516
1.14100, 0.17747
1.14200, 0.18396
1.14300, 0.19323
1.14400, 0.20389
1.14500, 0.21453
1.14600, 0.22375
1.14700, 0.23016
1.14800, 0.23255
1.14900, 0.23102
1.15000, 0.22612
1.15100, 0.21842
1.15200, 0.20847
1.15300, 0.19682
1.15400, 0.18405
1.15500, 0.17071
1.15600, 0.15710
1.15700, 0.14321
1.15800, 0.12897
1.15900, 0.11435
1.16000, 0.09927
1.16100, 0.08370
1.16200, 0.06758
1.16300, 0.05093
1.16400, 0.03428
1.16500, 0.01831
1.16600, 0.00375
1.16700, -0.00873
1.16800, -0.01843
1.16900, -0.02463
1.17000, -0.02666
1.17100, -0.02448
1.17200, -0.01891
1.17300, -0.01089
1.17400, -0.00130
1.17500, 0.00893
1.17600, 0.01890
1.17700, 0.02769
1.17800, 0.03456
1.17900, 0.03975
1.18000, 0.04384
1.18100, 0.04742
1.18200, 0.05109
1.18300, 0.05542
1.18400, 0.06102
1.18500, 0.06846
1.18600, 0.07803
1.18700, 0.08963
1.18800, 0.10311
1.18900, 0.11834
1.19000, 0.13519
1.19100, 0.15350
1.19200, 0.17315
1.19300, 0.19391
1.19400, 0.21513
1.19500, 0.23599
1.19600, 0.25567
1.19700, 0.27335
1.19800, 0.28821
1.19900, 0.29944
1.20000, 0.30622
1.20100, 0.30830
1.20200, 0.30616
1.20300, 0.30034
1.20400, 0.29137
1.20500, 0.27979
1.20600, 0.26614
1.20700, 0.25096
1.20800, 0.23478
1.20900, 0.21811
1.21000, 0.20144
1.21100, 0.18529
1.21200, 0.17013
1.21300, 0.15648
1.21400, 0.14484
1.21500, 0.13569
1.21600, 0.12925
1.21700, 0.12538
1.21800, 0.12388
1.21900, 0.12458
1.22000, 0.12730
1.22100, 0.13187
1.22200, 0.13809
1.22300, 0.14572
1.22400, 0.15408
1.22500, 0.16234
1.22600, 0.16968
1.22700, 0.17526
1.22800, 0.17828
1.22900, 0.17789
1.23000, 0.17329
1.23100, 0.16448
1.23200, 0.15251
1.23300, 0.13850
1.23400, 0.12359
1.23500, 0.10891
1.23600, 0.09559
1.23700, 0.08475
1.23800, 0.07733
1.23900, 0.07315
1.24000, 0.07166
1.24100, 0.07231
1.24200, 0.07454
1.24300, 0.07779
1.24400, 0.08153
1.24500, 0.08519
1.24600, 0.08870
1.24700, 0.09259
1.24800, 0.09740
1.24900, 0.10371
1.25000, 0.11208
1.25100, 0.12306
1.25200, 0.13723
1.25300, 0.15496
1.25400, 0.17567
1.25500, 0.19845
1.25600, 0.22240
1.25700, 0.24661
1.25800, 0.27015
1.25900, 0.29214
1.26000, 0.31166
1.26100, 0.32816
1.26200, 0.34156
1.26300, 0.35179
1.26400, 0.35879
1.26500, 0.36250
1.26600, 0.36286
1.26700, 0.35981
1.26800, 0.35327
1.26900, 0.34311
1.27000, 0.32918
1.27100, 0.31133
1.27200, 0.28940
1.27300, 0.26324
1.27400, 0.23271
1.27500, 0.19766
1.27600, 0.15898
1.27700, 0.11883
1.27800, 0.07943
1.27900, 0.04304
1.28000, 0.01189
1.28100, -0.01177
1.28200, -0.02571
1.28300, -0.02824
1.28400, -0.02066
1.28500, -0.00523
1.28600, 0.01576
1.28700, 0.04005
1.28800, 0.06537
1.28900, 0.08944
1.29000, 0.11001
1.29100, 0.12606
1.29200, 0.13804
1.29300, 0.14655
1.29400, 0.15215
1.29500, 0.15542
1.29600, 0.15693
1.29700, 0.15727
1.29800, 0.15695
1.29900, 0.15629
1.30000, 0.15552
1.30100, 0.15488
1.30200, 0.15461
1.30300, 0.15494
1.30400, 0.15610
1.30500, 0.15832
1.30600, 0.16153
1.30700, 0.16528
1.30800, 0.16911
1.30900, 0.17254
1.31000, 0.17511
1.31100, 0.17634
1.31200, 0.17577
1.31300, 0.17310
1.31400, 0.16890
1.31500, 0.16403
1.31600, 0.15935
1.31700, 0.15572
1.31800, 0.15400
1.31900, 0.15504
1.32000, 0.15969
1.32100, 0.16803
1.32200, 0.17927
1.32300, 0.19252
1.32400, 0.20691
1.32500, 0.22156
1.32600, 0.23562
1.32700, 0.24820
1.32800, 0.25861
1.32900, 0.26710
1.33000, 0.27421
1.33100, 0.28048
1.33200, 0.28645
1.33300, 0.29265
1.33400, 0.29962
1.33500, 0.30789
1.33600, 0.31706
1.33700, 0.32565
1.33800, 0.33212
1.33900, 0.33493
1.34000, 0.33252
1.34100, 0.32336
1.34200, 0.30589
1.34300, 0.27914
1.34400, 0.24498
1.34500, 0.20620
1.34600, 0.16554
1.34700, 0.12578
1.34800, 0.08970
1.34900, 0.06005
1.35000, 0.03955
1.35100, 0.02922
1.35200, 0.02802
1.35300, 0.03480
1.35400, 0.04840
1.35500, 0.06766
1.35600, 0.09143
1.35700, 0.11854
1.35800, 0.14785
1.35900, 0.17833
1.36000, 0.20896
1.36100, 0.23873
1.36200, 0.26662
1.36300, 0.29163
1.36400, 0.31273
1.36500, 0.32894
1.36600, 0.34005
1.36700, 0.34676
1.36800, 0.34985
1.36900, 0.35007
1.37000, 0.34819
1.37100, 0.34498
1.37200, 0.34120
1.37300, 0.33723
1.37400, 0.33160
1.37500, 0.32225
1.37600, 0.30714
1.37700, 0.28422
1.37800, 0.25144
1.37900, 0.20676
1.38000, 0.14824
1.38100, 0.07729
1.38200, -0.00072
1.38300, -0.08020
1.38400, -0.15556
1.38500, -0.22121
1.38600, -0.27155
1.38700, -0.30099
1.38800, -0.30539
1.38900, -0.28756
1.39000, -0.25240
1.39100, -0.20480
1.39200, -0.14965
1.39300, -0.09184
1.39400, -0.03628
1.39500, 0.01226
1.39600, 0.05199
1.39700, 0.08468
1.39800, 0.11227
1.39900, 0.13672
1.40000, 0.15999
1.40100, 0.18402
1.40200, 0.21076
1.40300, 0.24157
1.40400, 0.27490
1.40500, 0.30834
1.40600, 0.33952
1.40700, 0.36603
1.40800, 0.38548
1.40900, 0.39547
1.41000, 0.39368
1.41100, 0.38006
1.41200, 0.35710
1.41300, 0.32747
1.41400, 0.29382
1.41500, 0.25881
1.41600, 0.22510
1.41700, 0.19535
1.41800, 0.17185
1.41900, 0.15522
1.42000, 0.14561
1.42100, 0.14313
1.42200, 0.14793
1.42300, 0.16015
1.42400, 0.17991
1.42500, 0.20730
1.42600, 0.24104
1.42700, 0.27828
1.42800, 0.31608
1.42900, 0.35151
1.43000, 0.38163
1.43100, 0.40353
1.43200, 0.41425
1.43300, 0.41162
1.43400, 0.39683
1.43500, 0.37207
1.43600, 0.33953
1.43700, 0.30138
1.43800, 0.25981
1.43900, 0.21701
1.44000, 0.17513
1.44100, 0.13594
1.44200, 0.10071
1.44300, 0.07072
1.44400, 0.04722
1.44500, 0.03147
1.44600, 0.02474
1.44700, 0.02829
1.44800, 0.04293
1.44900, 0.06750
1.45000, 0.10026
1.45100, 0.13946
1.45200, 0.18338
1.45300, 0.23026
1.45400, 0.27838
1.45500, 0.32602
1.45600, 0.37211
1.45700, 0.41628
1.45800, 0.45821
1.45900, 0.49759
1.46000, 0.53408
1.46100, 0.56736
1.46200, 0.59711
1.46300, 0.62284
1.46400, 0.64334
1.46500, 0.65720
1.46600, 0.66300
1.46700, 0.65934
1.46800, 0.64480
1.46900, 0.61797
1.47000, 0.57752
1.47100, 0.52456
1.47200, 0.46283
1.47300, 0.39622
1.47400, 0.32860
1.47500, 0.26386
1.47600, 0.20588
1.47700, 0.15854
1.47800, 0.12483
1.47900, 0.10374
1.48000, 0.09319
1.48100, 0.09110
1.48200, 0.09537
1.48300, 0.10392
1.48400, 0.11466
1.48500, 0.12554
1.48600, 0.13549
1.48700, 0.14446
1.48800, 0.15249
1.48900, 0.15959
1.49000, 0.16578
1.49100, 0.17108
1.49200, 0.17552
1.49300, 0.17905
1.49400, 0.18140
1.49500, 0.18221
1.49600, 0.18114
1.49700, 0.17785
1.49800, 0.17197
1.49900, 0.16316
1.50000, 0.15112
1.50100, 0.13658
1.50200, 0.12138
1.50300, 0.10741
1.50400, 0.09657
1.50500, 0.09076
1.50600, 0.09188
1.50700, 0.10182
1.50800, 0.12174
1.50900, 0.14969
1.51000, 0.18288
1.51100, 0.21852
1.51200, 0.25381
1.51300, 0.28597
1.51400, 0.31221
1.51500, 0.32978
1.51600, 0.33732
1.51700, 0.33485
1.51800, 0.32251
1.51900, 0.30039
1.52000, 0.26863
1.52100, 0.22732
1.52200, 0.17659
1.52300, 0.11708
1.52400, 0.05165
1.52500, -0.01627
1.52600, -0.08322
1.52700, -0.14576
1.52800, -0.20044
1.52900, -0.24383
1.53000, -0.27257
1.53100, -0.28579
1.53200, -0.28517
1.53300, -0.27249
1.53400, -0.24956
1.53500, -0.21817
1.53600, -0.18012
1.53700, -0.13722
1.53800, -0.09120
1.53900, -0.04368
1.54000, 0.00381
1.54100, 0.04970
1.54200, 0.09245
1.54300, 0.13050
1.54400, 0.16231
1.54500, 0.18636
1.54600, 0.20230
1.54700, 0.21097
1.54800, 0.21322
1.54900, 0.20995
1.55000, 0.20203
1.55100, 0.19034
1.55200, 0.17575
1.55300, 0.15928
1.55400, 0.14249
1.55500, 0.12708
1.55600, 0.11475
1.55700, 0.10720
1.55800, 0.10614
1.55900, 0.11326
1.56000, 0.13018
1.56100, 0.15627
1.56200, 0.18866
1.56300, 0.22437
1.56400, 0.26042
1.56500, 0.29385
1.56600, 0.32167
1.56700, 0.34091
1.56800, 0.34934
1.56900, 0.34777
1.57000, 0.33777
1.57100, 0.32093
1.57200, 0.29881
1.57300, 0.27299
1.57400, 0.24504
1.57500, 0.21649
1.57600, 0.18792
1.57700, 0.15892
1.57800, 0.12904
1.57900, 0.09784
1.58000, 0.06488
1.58100, 0.02970
1.58200, -0.00813
1.58300, -0.04847
1.58400, -0.08882
1.58500, -0.12611
1.58600, -0.15724
1.58700, -0.17914
1.58800, -0.18873
1.58900, -0.18293
1.59000, -0.15882
1.59100, -0.11744
1.59200, -0.06369
1.59300, -0.00267
1.59400, 0.06055
1.59500, 0.12088
1.59600, 0.17325
1.59700, 0.21256
1.59800, 0.23532
1.59900, 0.24417
1.60000, 0.24329
1.60100, 0.23686
1.60200, 0.22905
1.60300, 0.22402
1.60400, 0.22596
1.60500, 0.23887
1.60600, 0.26303
1.60700, 0.29509
1.60800, 0.33154
1.60900, 0.36890
1.61000, 0.40364
1.61100, 0.43228
1.61200, 0.45131
1.61300, 0.45831
1.61400, 0.45503
1.61500, 0.44427
1.61600, 0.42880
1.61700, 0.41138
1.61800, 0.39481
1.61900, 0.38185
1.62000, 0.37520
1.62100, 0.37552
1.62200, 0.38158
1.62300, 0.39205
1.62400, 0.40559
1.62500, 0.42088
1.62600, 0.43659
1.62700, 0.45139
1.62800, 0.46398
1.62900, 0.47322
1.63000, 0.47798
1.63100, 0.47713
1.63200, 0.46955
1.63300, 0.45412
1.63400, 0.42972
1.63500, 0.39530
1.63600, 0.35156
1.63700, 0.30085
1.63800, 0.24561
1.63900, 0.18826
1.64000, 0.13121
1.64100, 0.07689
1.64200, 0.02773
1.64300, -0.01428
1.64400, -0.04869
1.64500, -0.07546
1.64600, -0.09451
1.64700, -0.10580
1.64800, -0.10926
1.64900, -0.10482
1.65000, -0.09245
1.65100, -0.07241
1.65200, -0.04527
1.65300, -0.01159
1.65400, 0.02806
1.65500, 0.07309
1.65600, 0.12295
1.65700, 0.17705
1.65800, 0.23448
1.65900, 0.29306
1.66000, 0.35031
1.66100, 0.40375
1.66200, 0.45090
1.66300, 0.48929
1.66400, 0.51644
1.66500, 0.53001
1.66600, 0.53060
1.66700, 0.52153
1.66800, 0.50623
1.66900, 0.48811
1.67000, 0.47060
1.67100, 0.45714
1.67200, 0.45113
1.67300, 0.45476
1.67400, 0.46570
1.67500, 0.48058
1.67600, 0.49602
1.67700, 0.50864
1.67800, 0.51508
1.67900, 0.51196
1.68000, 0.49608
1.68100, 0.46770
1.68200, 0.43022
1.68300, 0.38716
1.68400, 0.34207
1.68500, 0.29847
1.68600, 0.25990
1.68700, 0.22987
1.68800, 0.21088
1.68900, 0.20166
1.69000, 0.20009
1.69100, 0.20405
1.69200, 0.21143
1.69300, 0.22010
1.69400, 0.22796
1.69500, 0.23294
1.69600, 0.23403
1.69700, 0.23115
1.69800, 0.22428
1.69900, 0.21339
1.70000, 0.19844
1.70100, 0.17941
1.70200, 0.15626
1.70300, 0.12934
1.70400, 0.10034
1.70500, 0.07123
1.70600, 0.04398
1.70700, 0.02059
1.70800, 0.00302
1.70900, -0.00674
1.71000, -0.00683
1.71100, 0.00256
1.71200, 0.01935
1.71300, 0.04141
1.71400, 0.06662
1.71500, 0.09283
1.71600, 0.11792
1.71700, 0.13976
1.71800, 0.15697
1.71900, 0.17080
1.72000, 0.18311
1.72100, 0.19574
1.72200, 0.21052
1.72300, 0.22929
1.72400, 0.25390
1.72500, 0.28606
1.72600, 0.32508
1.72700, 0.36817
1.72800, 0.41243
1.72900, 0.45500
1.73000, 0.49299
1.73100, 0.52352
1.73200, 0.54372
1.73300, 0.55171
1.73400, 0.54910
1.73500, 0.53824
1.73600, 0.52147
1.73700, 0.50116
1.73800, 0.47965
1.73900, 0.45930
1.74000, 0.44234
1.74100, 0.42902
1.74200, 0.41784
1.74300, 0.40725
1.74400, 0.39568
1.74500, 0.38157
1.74600, 0.36336
1.74700, 0.33949
1.74800, 0.30901
1.74900, 0.27302
1.75000, 0.23304
1.75100, 0.19061
1.75200, 0.14726
1.75300, 0.10454
1.75400, 0.06396
1.75500, 0.02703
1.75600, -0.00549
1.75700, -0.03343
1.75800, -0.05667
1.75900, -0.07507
1.76000, -0.08851
1.76100, -0.09684
1.76200, -0.09995
1.76300, -0.09786
1.76400, -0.09121
1.76500, -0.08076
1.76600, -0.06727
1.76700, -0.05148
1.76800, -0.03416
1.76900, -0.01606
1.77000, 0.00205
1.77100, 0.01928
1.77200, 0.03458
1.77300, 0.04694
1.77400, 0.05531
1.77500, 0.05866
1.77600, 0.05597
1.77700, 0.04619
1.77800, 0.02897
1.77900, 0.00611
1.78000, -0.02012
1.78100, -0.04744
1.78200, -0.07358
1.78300, -0.09628
1.78400, -0.11326
1.78500, -0.12239
1.78600, -0.12375
1.78700, -0.11933
1.78800, -0.11115
1.78900, -0.10125
1.79000, -0.09166
1.79100, -0.08440
1.79200, -0.08153
1.79300, -0.08440
1.79400, -0.09232
1.79500, -0.10412
1.79600, -0.11865
1.79700, -0.13476
1.79800, -0.15130
1.79900, -0.16711
1.80000, -0.18106
1.80100, -0.19232
1.80200, -0.20034
1.80300, -0.20453
1.80400, -0.20435
1.80500, -0.19924
1.80600, -0.18863
1.80700, -0.17195
1.80800, -0.14910
1.80900, -0.12135
1.81000, -0.09026
1.81100, -0.05741
1.81200, -0.02435
1.81300, 0.00734
1.81400, 0.03610
1.81500, 0.06043
1.81600, 0.07989
1.81700, 0.09494
1.81800, 0.10604
1.81900, 0.11367
1.82000, 0.11831
1.82100, 0.12041
1.82200, 0.12046
1.82300, 0.11898
1.82400, 0.11666
1.82500, 0.11422
1.82600, 0.11238
1.82700, 0.11187
1.82800, 0.11341
1.82900, 0.11771
1.83000, 0.12544
1.83100, 0.13604
1.83200, 0.14802
1.83300, 0.15984
1.83400, 0.16998
1.83500, 0.17691
1.83600, 0.17910
1.83700, 0.17502
1.83800, 0.16376
1.83900, 0.14643
1.84000, 0.12449
1.84100, 0.09943
1.84200, 0.07271
1.84300, 0.04581
1.84400, 0.02020
1.84500, -0.00268
1.84600, -0.02231
1.84700, -0.03886
1.84800, -0.05250
1.84900, -0.06343
1.85000, -0.07183
1.85100, -0.07789
1.85200, -0.08180
1.85300, -0.08363
1.85400, -0.08314
1.85500, -0.08000
1.85600, -0.07389
1.85700, -0.06450
1.85800, -0.05150
1.85900, -0.03459
1.86000, -0.01350
1.86100, 0.01082
1.86200, 0.03654
1.86300, 0.06178
1.86400, 0.08468
1.86500, 0.10335
1.86600, 0.11594
1.86700, 0.12056
1.86800, 0.11612
1.86900, 0.10385
1.87000, 0.08543
1.87100, 0.06252
1.87200, 0.03681
1.87300, 0.00998
1.87400, -0.01631
1.87500, -0.04041
1.87600, -0.06122
1.87700, -0.07807
1.87800, -0.09031
1.87900, -0.09728
1.88000, -0.09832
1.88100, -0.09277
1.88200, -0.07997
1.88300, -0.05966
1.88400, -0.03280
1.88500, -0.00055
1.88600, 0.03591
1.88700, 0.07541
1.88800, 0.11677
1.88900, 0.15883
1.89000, 0.20041
1.89100, 0.24033
1.89200, 0.27738
1.89300, 0.31037
1.89400, 0.33810
1.89500, 0.35937
1.89600, 0.37298
1.89700, 0.37773
1.89800, 0.37292
1.89900, 0.35928
1.90000, 0.33780
1.90100, 0.30948
1.90200, 0.27532
1.90300, 0.23631
1.90400, 0.19345
1.90500, 0.14773
1.90600, 0.09991
1.90700, 0.05062
1.90800, 0.00046
1.90900, -0.04997
1.91000, -0.10004
1.91100, -0.14916
1.91200, -0.19671
1.91300, -0.24200
1.91400, -0.28405
1.91500, -0.32186
1.91600, -0.35442
1.91700, -0.38072
1.91800, -0.39973
1.91900, -0.41046
1.92000, -0.41201
1.92100, -0.40513
1.92200, -0.39183
1.92300, -0.37417
1.92400, -0.35417
1.92500, -0.33388
1.92600, -0.31534
1.92700, -0.30058
1.92800, -0.29062
1.92900, -0.28344
1.93000, -0.27652
1.93100, -0.26734
1.93200, -0.25336
1.93300, -0.23204
1.93400, -0.20087
1.93500, -0.15755
1.93600, -0.10332
1.93700, -0.04200
1.93800, 0.02250
1.93900, 0.08629
1.94000, 0.14546
1.94100, 0.19614
1.94200, 0.23440
1.94300, 0.25775
1.94400, 0.26756
1.94500, 0.26592
1.94600, 0.25489
1.94700, 0.23655
1.94800, 0.21297
1.94900, 0.18624
1.95000, 0.15839
1.95100, 0.13102
1.95200, 0.10540
1.95300, 0.08279
1.95400, 0.06447
1.95500, 0.05168
1.95600, 0.04569
1.95700, 0.04776
1.95800, 0.05842
1.95900, 0.07613
1.96000, 0.09900
1.96100, 0.12513
1.96200, 0.15262
1.96300, 0.17959
1.96400, 0.20413
1.96500, 0.22445
1.96600, 0.24011
1.96700, 0.25165
1.96800, 0.25964
1.96900, 0.26464
1.97000, 0.26722
1.97100, 0.26793
1.97200, 0.26735
1.97300, 0.26569
1.97400, 0.26223
1.97500, 0.25609
1.97600, 0.24638
1.97700, 0.23222
1.97800, 0.21271
1.97900, 0.18698
1.98000, 0.15427
1.98100, 0.11570
1.98200, 0.07367
1.98300, 0.03066
1.98400, -0.01090
1.98500, -0.04853
1.98600, -0.07980
1.98700, -0.10224
1.98800, -0.11432
1.98900, -0.11696
1.99000, -0.11151
1.99100, -0.09932
1.99200, -0.08174
1.99300, -0.06011
1.99400, -0.03579
1.99500, -0.01006
1.99600, 0.01639
1.99700, 0.04338
1.99800, 0.07069
1.99900, 0.09813
2.00000, 0.12549
2.00100, 0.15257
2.00200, 0.17918
2.00300, 0.20485
2.00400, 0.22846
2.00500, 0.24875
2.00600, 0.26447
2.00700, 0.27438
2.00800, 0.27722
2.00900, 0.27176
2.01000, 0.25691
2.01100, 0.23407
2.01200, 0.20630
2.01300, 0.17669
2.01400, 0.14836
2.01500, 0.12442
2.01600, 0.10795
2.01700, 0.10208
2.01800, 0.10832
2.01900, 0.12403
2.02000, 0.14590
2.02100, 0.17058
2.02200, 0.19478
2.02300, 0.21515
2.02400, 0.22837
2.02500, 0.23139
2.02600, 0.22447
2.02700, 0.21016
2.02800, 0.19109
2.02900, 0.16985
2.03000, 0.14906
2.03100, 0.13131
2.03200, 0.11922
2.03300, 0.11441
2.03400, 0.11594
2.03500, 0.12246
2.03600, 0.13262
2.03700, 0.14506
2.03800, 0.15844
2.03900, 0.17140
2.04000, 0.18264
2.04100, 0.19142
2.04200, 0.19740
2.04300, 0.20023
2.04400, 0.19959
2.04500, 0.19512
2.04600, 0.18650
2.04700, 0.17337
2.04800, 0.15605
2.04900, 0.13645
2.05000, 0.11675
2.05100, 0.09915
2.05200, 0.08582
2.05300, 0.07895
2.05400, 0.08073
2.05500, 0.09310
2.05600, 0.11512
2.05700, 0.14394
2.05800, 0.17664
2.05900, 0.21032
2.06000, 0.24207
2.06100, 0.26899
2.06200, 0.28817
2.06300, 0.29792
2.06400, 0.29962
2.06500, 0.29511
2.06600, 0.28626
2.06700, 0.27491
2.06800, 0.26294
2.06900, 0.25218
2.07000, 0.24431
2.07100, 0.23853
2.07200, 0.23245
2.07300, 0.22364
2.07400, 0.20968
2.07500, 0.18814
2.07600, 0.15659
2.07700, 0.11263
2.07800, 0.05564
2.07900, -0.01036
2.08000, -0.08067
2.08100, -0.15057
2.08200, -0.21536
2.08300, -0.27033
2.08400, -0.31076
2.08500, -0.33235
2.08600, -0.33554
2.08700, -0.32386
2.08800, -0.30092
2.08900, -0.27032
2.09000, -0.23565
2.09100, -0.20052
2.09200, -0.16852
2.09300, -0.14198
2.09400, -0.12004
2.09500, -0.10140
2.09600, -0.08472
2.09700, -0.06871
2.09800, -0.05202
2.09900, -0.03335
2.10000, -0.01151
2.10100, 0.01312
2.10200, 0.03914
2.10300, 0.06512
2.10400, 0.08965
2.10500, 0.11132
2.10600, 0.12871
2.10700, 0.14039
2.10800, 0.14531
2.10900, 0.14324
2.11000, 0.13407
2.11100, 0.11773
2.11200, 0.09411
2.11300, 0.06311
2.11400, 0.02464
2.11500, -0.02124
2.11600, -0.07261
2.11700, -0.12638
2.11800, -0.17946
2.11900, -0.22872
2.12000, -0.27107
2.12100, -0.30339
2.12200, -0.32259
2.12300, -0.32694
2.12400, -0.31809
2.12500, -0.29819
2.12600, -0.26936
2.12700, -0.23375
2.12800, -0.19349
2.12900, -0.15072
2.13000, -0.10749
2.13100, -0.06478
2.13200, -0.02292
2.13300, 0.01780
2.13400, 0.05705
2.13500, 0.09453
2.13600, 0.12992
2.13700, 0.16293
2.13800, 0.19302
2.13900, 0.21921
2.14000, 0.24043
2.14100, 0.25561
2.14200, 0.26368
2.14300, 0.26357
2.14400, 0.25422
2.14500, 0.23479
2.14600, 0.20695
2.14700, 0.17396
2.14800, 0.13909
2.14900, 0.10561
2.15000, 0.07680
2.15100, 0.05593
2.15200, 0.04626
2.15300, 0.04969
2.15400, 0.06484
2.15500, 0.08990
2.15600, 0.12303
2.15700, 0.16241
2.15800, 0.20621
2.15900, 0.25260
2.16000, 0.29981
2.16100, 0.34676
2.16200, 0.39277
2.16300, 0.43717
2.16400, 0.47929
2.16500, 0.51845
2.16600, 0.55399
2.16700, 0.58524
2.16800, 0.61143
2.16900, 0.63163
2.17000, 0.64483
2.17100, 0.65007
2.17200, 0.64635
2.17300, 0.63270
2.17400, 0.60813
2.17500, 0.57186
2.17600, 0.52531
2.17700, 0.47123
2.17800, 0.41241
2.17900, 0.35160
2.18000, 0.29158
2.18100, 0.23513
2.18200, 0.18500
2.18300, 0.14301
2.18400, 0.10877
2.18500, 0.08160
2.18600, 0.06079
2.18700, 0.04567
2.18800, 0.03554
2.18900, 0.02970
2.19000, 0.02754
2.19100, 0.02894
2.19200, 0.03418
2.19300, 0.04348
2.19400, 0.05711
2.19500, 0.07532
2.19600, 0.09835
2.19700, 0.12645
2.19800, 0.15943
2.19900, 0.19606
2.20000, 0.23499
2.20100, 0.27485
2.20200, 0.31429
2.20300, 0.35195
2.20400, 0.38648
2.20500, 0.41656
2.20600, 0.44134
2.20700, 0.46024
2.20800, 0.47270
2.20900, 0.47814
2.21000, 0.47598
2.21100, 0.46566
2.21200, 0.44660
2.21300, 0.41899
2.21400, 0.38469
2.21500, 0.34576
2.21600, 0.30430
2.21700, 0.26237
2.21800, 0.22207
2.21900, 0.18546
2.22000, 0.15450
2.22100, 0.12981
2.22200, 0.11124
2.22300, 0.09863
2.22400, 0.09181
2.22500, 0.09064
2.22600, 0.09494
2.22700, 0.10456
2.22800, 0.11896
2.22900, 0.13682
2.23000, 0.15670
2.23100, 0.17716
2.23200, 0.19677
2.23300, 0.21409
2.23400, 0.22768
2.23500, 0.23626
2.23600, 0.24013
2.23700, 0.24046
2.23800, 0.23846
2.23900, 0.23533
2.24000, 0.23226
2.24100, 0.23047
2.24200, 0.23114
2.24300, 0.23491
2.24400, 0.24118
2.24500, 0.24922
2.24600, 0.25827
2.24700, 0.26758
2.24800, 0.27641
2.24900, 0.28400
2.25000, 0.28960
2.25100, 0.29243
2.25200, 0.29165
2.25300, 0.28644
2.25400, 0.27599
2.25500, 0.25948
2.25600, 0.23608
2.25700, 0.20497
2.25800, 0.16655
2.25900, 0.12372
2.26000, 0.07973
2.26100, 0.03783
2.26200, 0.00128
2.26300, -0.02670
2.26400, -0.04284
2.26500, -0.04425
2.26600, -0.03148
2.26700, -0.00699
2.26800, 0.02671
2.26900, 0.06714
2.27000, 0.11181
2.27100, 0.15821
2.27200, 0.20387
2.27300, 0.24684
2.27400, 0.28639
2.27500, 0.32193
2.27600, 0.35284
2.27700, 0.37854
2.27800, 0.39842
2.27900, 0.41190
2.28000, 0.41844
2.28100, 0.41813
2.28200, 0.41140
2.28300, 0.39868
2.28400, 0.38040
2.28500, 0.35700
2.28600, 0.32892
2.28700, 0.29659
2.28800, 0.26091
2.28900, 0.22377
2.29000, 0.18715
2.29100, 0.15307
2.29200, 0.12352
2.29300, 0.10049
2.29400, 0.08599
2.29500, 0.08170
2.29600, 0.08633
2.29700, 0.09695
2.29800, 0.11063
2.29900, 0.12443
2.30000, 0.13541
2.30100, 0.14064
2.30200, 0.13718
2.30300, 0.12389
2.30400, 0.10328
2.30500, 0.07830
2.30600, 0.05190
2.30700, 0.02704
2.30800, 0.00667
2.30900, -0.00625
2.31000, -0.00910
2.31100, -0.00229
2.31200, 0.01210
2.31300, 0.03201
2.31400, 0.05534
2.31500, 0.08002
2.31600, 0.10398
2.31700, 0.12512
2.31800, 0.14231
2.31900, 0.15623
2.32000, 0.16780
2.32100, 0.17795
2.32200, 0.18759
2.32300, 0.19764
2.32400, 0.20903
2.32500, 0.22249
2.32600, 0.23706
2.32700, 0.25090
2.32800, 0.26213
2.32900, 0.26891
2.33000, 0.26935
2.33100, 0.26162
2.33200, 0.24384
2.33300, 0.21572
2.33400, 0.18001
2.33500, 0.13984
2.33600, 0.09834
2.33700, 0.05864
2.33800, 0.02387
2.33900, -0.00285
2.34000, -0.01878
2.34100, -0.02462
2.34200, -0.02290
2.34300, -0.01616
2.34400, -0.00696
2.34500, 0.00217
2.34600, 0.00868
2.34700, 0.01003
2.34800, 0.00505
2.34900, -0.00475
2.35000, -0.01755
2.35100, -0.03154
2.35200, -0.04489
2.35300, -0.05578
2.35400, -0.06239
2.35500, -0.06307
2.35600, -0.05761
2.35700, -0.04655
2.35800, -0.03045
2.35900, -0.00987
2.36000, 0.01466
2.36100, 0.04256
2.36200, 0.07329
2.36300, 0.10602
2.36400, 0.13936
2.36500, 0.17188
2.36600, 0.20213
2.36700, 0.22870
2.36800, 0.25012
2.36900, 0.26497
2.37000, 0.27198
2.37100, 0.27144
2.37200, 0.26441
2.37300, 0.25197
2.37400, 0.23520
2.37500, 0.21518
2.37600, 0.19297
2.37700, 0.16967
2.37800, 0.14651
2.37900, 0.12503
2.38000, 0.10680
2.38100, 0.09340
2.38200, 0.08641
2.38300, 0.08740
2.38400, 0.09795
2.38500, 0.11928
2.38600, 0.14971
2.38700, 0.18604
2.38800, 0.22509
2.38900, 0.26364
2.39000, 0.29852
2.39100, 0.32651
2.39200, 0.34445
2.39300, 0.35075
2.39400, 0.34686
2.39500, 0.33457
2.39600, 0.31569
2.39700, 0.29201
2.39800, 0.26531
2.39900, 0.23740
2.40000, 0.21000
2.40100, 0.18436
2.40200, 0.16147
2.40300, 0.14231
2.40400, 0.12788
2.40500, 0.11916
2.40600, 0.11714
2.40700, 0.12280
2.40800, 0.13613
2.40900, 0.15524
2.41000, 0.17804
2.41100, 0.20245
2.41200, 0.22638
2.41300, 0.24774
2.41400, 0.26445
2.41500, 0.27472
2.41600, 0.27919
2.41700, 0.27973
2.41800, 0.27821
2.41900, 0.27649
2.42000, 0.27645
2.42100, 0.27995
2.42200, 0.28885
2.42300, 0.30384
2.42400, 0.32341
2.42500, 0.34585
2.42600, 0.36942
2.42700, 0.39241
2.42800, 0.41309
2.42900, 0.42973
2.43000, 0.44081
2.43100, 0.44660
2.43200, 0.44820
2.43300, 0.44671
2.43400, 0.44327
2.43500, 0.43897
2.43600, 0.43493
2.43700, 0.43226
2.43800, 0.43114
2.43900, 0.43006
2.44000, 0.42734
2.44100, 0.42131
2.44200, 0.41028
2.44300, 0.39257
2.44400, 0.36651
2.44500, 0.33074
2.44600, 0.28669
2.44700, 0.23707
2.44800, 0.18462
2.44900, 0.13207
2.45000, 0.08215
2.45100, 0.03761
2.45200, 0.00115
2.45300, -0.02570
2.45400, -0.04360
2.45500, -0.05345
2.45600, -0.05612
2.45700, -0.05250
2.45800, -0.04347
2.45900, -0.02993
2.46000, -0.01275
2.46100, 0.00727
2.46200, 0.02938
2.46300, 0.05282
2.46400, 0.07682
2.46500, 0.10063
2.46600, 0.12349
2.46700, 0.14464
2.46800, 0.16386
2.46900, 0.18182
2.47000, 0.19932
2.47100, 0.21714
2.47200, 0.23606
2.47300, 0.25687
2.47400, 0.28036
2.47500, 0.30709
2.47600, 0.33598
2.47700, 0.36520
2.47800, 0.39286
2.47900, 0.41713
2.48000, 0.43615
2.48100, 0.44805
2.48200, 0.45099
2.48300, 0.44443
2.48400, 0.43006
2.48500, 0.40983
2.48600, 0.38566
2.48700, 0.35950
2.48800, 0.33327
2.48900, 0.30892
2.49000, 0.28817
2.49100, 0.27111
2.49200, 0.25709
2.49300, 0.24547
2.49400, 0.23558
2.49500, 0.22678
2.49600, 0.21840
2.49700, 0.20980
2.49800, 0.20078
2.49900, 0.19196
2.50000, 0.18401
2.50100, 0.17762
2.50200, 0.17347
2.50300, 0.17224
2.50400, 0.17463
2.50500, 0.18118
2.50600, 0.19155
2.50700, 0.20496
2.50800, 0.22066
2.50900, 0.23786
2.51000, 0.25579
2.51100, 0.27369
2.51200, 0.29078
2.51300, 0.30639
2.51400, 0.32004
2.51500, 0.33125
2.51600, 0.33954
2.51700, 0.34445
2.51800, 0.34548
2.51900, 0.34218
2.52000, 0.33422
2.52100, 0.32244
2.52200, 0.30820
2.52300, 0.29286
2.52400, 0.27779
2.52500, 0.26435
2.52600, 0.25390
2.52700, 0.24780
2.52800, 0.24645
2.52900, 0.24869
2.53000, 0.25322
2.53100, 0.25871
2.53200, 0.26385
2.53300, 0.26734
2.53400, 0.26784
2.53500, 0.26434
2.53600, 0.25795
2.53700, 0.25074
2.53800, 0.24477
2.53900, 0.24211
2.54000, 0.24482
2.54100, 0.25497
2.54200, 0.27459
2.54300, 0.30366
2.54400, 0.33869
2.54500, 0.37587
2.54600, 0.41139
2.54700, 0.44144
2.54800, 0.46220
2.54900, 0.46988
2.55000, 0.46131
2.55100, 0.43816
2.55200, 0.40418
2.55300, 0.36314
2.55400, 0.31880
2.55500, 0.27492
2.55600, 0.23527
2.55700, 0.20359
2.55800, 0.18171
2.55900, 0.16837
2.56000, 0.16198
2.56100, 0.16098
2.56200, 0.16380
2.56300, 0.16886
2.56400, 0.17461
2.56500, 0.17966
2.56600, 0.18408
2.56700, 0.18856
2.56800, 0.19379
2.56900, 0.20045
2.57000, 0.20923
2.57100, 0.22083
2.57200, 0.23590
2.57300, 0.25428
2.57400, 0.27438
2.57500, 0.29451
2.57600, 0.31296
2.57700, 0.32803
2.57800, 0.33802
2.57900, 0.34123
2.58000, 0.33626
2.58100, 0.32386
2.58200, 0.30571
2.58300, 0.28349
2.58400, 0.25888
2.58500, 0.23354
2.58600, 0.20917
2.58700, 0.18742
2.58800, 0.16953
2.58900, 0.15607
2.59000, 0.14751
2.59100, 0.14434
2.59200, 0.14704
2.59300, 0.15612
2.59400, 0.17205
2.59500, 0.19503
2.59600, 0.22332
2.59700, 0.25433
2.59800, 0.28549
2.59900, 0.31421
2.60000, 0.33792
2.60100, 0.35404
2.60200, 0.36001
2.60300, 0.35524
2.60400, 0.34222
2.60500, 0.32374
2.60600, 0.30255
2.60700, 0.28144
2.60800, 0.26317
2.60900, 0.25052
2.61000, 0.24575
2.61100, 0.24779
2.61200, 0.25414
2.61300, 0.26230
2.61400, 0.26979
2.61500, 0.27412
2.61600, 0.27278
2.61700, 0.26331
2.61800, 0.24470
2.61900, 0.21818
2.62000, 0.18521
2.62100, 0.14723
2.62200, 0.10569
2.62300, 0.06204
2.62400, 0.01771
2.62500, -0.02584
2.62600, -0.06719
2.62700, -0.10494
2.62800, -0.13766
2.62900, -0.16393
2.63000, -0.18235
2.63100, -0.19150
2.63200, -0.18999
2.63300, -0.17763
2.63400, -0.15616
2.63500, -0.12743
2.63600, -0.09333
2.63700, -0.05573
2.63800, -0.01651
2.63900, 0.02247
2.64000, 0.05948
2.64100, 0.09390
2.64200, 0.12554
2.64300, 0.15420
2.64400, 0.17971
2.64500, 0.20186
2.64600, 0.22047
2.64700, 0.23535
2.64800, 0.24650
2.64900, 0.25416
2.65000, 0.25863
2.65100, 0.26017
2.65200, 0.25909
2.65300, 0.25565
2.65400, 0.25015
2.65500, 0.24281
2.65600, 0.23360
2.65700, 0.22237
2.65800, 0.20895
2.65900, 0.19320
2.66000, 0.17497
2.66100, 0.15409
2.66200, 0.13044
2.66300, 0.10474
2.66400, 0.07906
2.66500, 0.05555
2.66600, 0.03638
2.66700, 0.02371
2.66800, 0.01970
2.66900, 0.02653
2.67000, 0.04582
2.67100, 0.07589
2.67200, 0.11372
2.67300, 0.15633
2.67400, 0.20068
2.67500, 0.24379
2.67600, 0.28263
2.67700, 0.31424
2.67800, 0.33736
2.67900, 0.35327
2.68000, 0.36347
2.68100, 0.36947
2.68200, 0.37276
2.68300, 0.37484
2.68400, 0.37722
2.68500, 0.38113
2.68600, 0.38627
2.68700, 0.39172
2.68800, 0.39654
2.68900, 0.39981
2.69000, 0.40062
2.69100, 0.39804
2.69200, 0.39115
2.69300, 0.37977
2.69400, 0.36480
2.69500, 0.34720
2.69600, 0.32794
2.69700, 0.30800
2.69800, 0.28835
2.69900, 0.26996
2.70000, 0.25374
2.70100, 0.24020
2.70200, 0.22968
2.70300, 0.22255
2.70400, 0.21914
2.70500, 0.21983
2.70600, 0.22495
2.70700, 0.23484
2.70800, 0.24922
2.70900, 0.26683
2.71000, 0.28637
2.71100, 0.30654
2.71200, 0.32602
2.71300, 0.34350
2.71400, 0.35768
2.71500, 0.36740
2.71600, 0.37248
2.71700, 0.37309
2.71800, 0.36941
2.71900, 0.36161
2.72000, 0.34986
2.72100, 0.33435
2.72200, 0.31525
2.72300, 0.29312
2.72400, 0.26904
2.72500, 0.24416
2.72600, 0.21961
2.72700, 0.19650
2.72800, 0.17598
2.72900, 0.15918
2.73000, 0.14701
2.73100, 0.13918
2.73200, 0.13489
2.73300, 0.13337
2.73400, 0.13385
2.73500, 0.13554
2.73600, 0.13767
2.73700, 0.13947
2.73800, 0.14052
2.73900, 0.14096
2.74000, 0.14091
2.74100, 0.14053
2.74200, 0.13998
2.74300, 0.13940
2.74400, 0.13893
2.74500, 0.13871
2.74600, 0.13871
2.74700, 0.13885
2.74800, 0.13904
2.74900, 0.13920
2.75000, 0.13925
2.75100, 0.13911
2.75200, 0.13870
2.75300, 0.13804
2.75400, 0.13730
2.75500, 0.13666
2.75600, 0.13629
2.75700, 0.13638
2.75800, 0.13710
2.75900, 0.13863
2.76000, 0.14109
2.76100, 0.14424
2.76200, 0.14771
2.76300, 0.15113
2.76400, 0.15412
2.76500, 0.15632
2.76600, 0.15736
2.76700, 0.15687
2.76800, 0.15474
2.76900, 0.15120
2.77000, 0.14651
2.77100, 0.14092
2.77200, 0.13468
2.77300, 0.12807
2.77400, 0.12133
2.77500, 0.11470
2.77600, 0.10835
2.77700, 0.10240
2.77800, 0.09698
2.77900, 0.09221
2.78000, 0.08823
2.78100, 0.08516
2.78200, 0.08313
2.78300, 0.08200
2.78400, 0.08129
2.78500, 0.08049
2.78600, 0.07910
2.78700, 0.07661
2.78800, 0.07251
2.78900, 0.06629
2.79000, 0.05764
2.79100, 0.04730
2.79200, 0.03637
2.79300, 0.02599
2.79400, 0.01725
2.79500, 0.01128
2.79600, 0.00919
2.79700, 0.01206
2.79800, 0.01990
2.79900, 0.03119
2.80000, 0.04435
2.80100, 0.05777
2.80200, 0.06985
2.80300, 0.07900
2.80400, 0.08362
2.80500, 0.08245
2.80600, 0.07618
2.80700, 0.06617
2.80800, 0.05377
2.80900, 0.04035
2.81000, 0.02725
2.81100, 0.01584
2.81200, 0.00746
2.81300, 0.00272
2.81400, 0.00124
2.81500, 0.00260
2.81600, 0.00637
2.81700, 0.01210
2.81800, 0.01937
2.81900, 0.02774
2.82000, 0.03678
2.82100, 0.04609
2.82200, 0.05524
2.82300, 0.06383
2.82400, 0.07144
2.82500, 0.07768
2.82600, 0.08213
2.82700, 0.08439
2.82800, 0.08432
2.82900, 0.08214
2.83000, 0.07809
2.83100, 0.07241
2.83200, 0.06535
2.83300, 0.05713
2.83400, 0.04801
2.83500, 0.03828
2.83600, 0.02859
2.83700, 0.01969
2.83800, 0.01234
2.83900, 0.00728
2.84000, 0.00528
2.84100, 0.00709
2.84200, 0.01344
2.84300, 0.02438
2.84400, 0.03907
2.84500, 0.05661
2.84600, 0.07608
2.84700, 0.09658
2.84800, 0.11720
2.84900, 0.13705
2.85000, 0.15527
2.85100, 0.17133
2.85200, 0.18483
2.85300, 0.19533
2.85400, 0.20241
2.85500, 0.20566
2.85600, 0.20466
2.85700, 0.19899
2.85800, 0.18895
2.85900, 0.17567
2.86000, 0.16037
2.86100, 0.14424
2.86200, 0.12851
2.86300, 0.11436
2.86400, 0.10301
2.86500, 0.09546
2.86600, 0.09166
2.86700, 0.09120
2.86800, 0.09367
2.86900, 0.09867
2.87000, 0.10581
2.87100, 0.11466
2.87200, 0.12482
2.87300, 0.13563
2.87400, 0.14609
2.87500, 0.15521
2.87600, 0.16198
2.87700, 0.16539
2.87800, 0.16443
2.87900, 0.15810
2.88000, 0.14575
2.88100, 0.12859
2.88200, 0.10843
2.88300, 0.08710
2.88400, 0.06640
2.88500, 0.04815
2.88600, 0.03416
2.88700, 0.02621
2.88800, 0.02488
2.88900, 0.02924
2.89000, 0.03828
2.89100, 0.05096
2.89200, 0.06628
2.89300, 0.08320
2.89400, 0.10071
2.89500, 0.11791
2.89600, 0.13452
2.89700, 0.15045
2.89800, 0.16562
2.89900, 0.17993
2.90000, 0.19332
2.90100, 0.20569
2.90200, 0.21696
2.90300, 0.22698
2.90400, 0.23556
2.90500, 0.24248
2.90600, 0.24753
2.90700, 0.25049
2.90800, 0.25118
2.90900, 0.24936
2.91000, 0.24491
2.91100, 0.23810
2.91200, 0.22935
2.91300, 0.21904
2.91400, 0.20759
2.91500, 0.19539
2.91600, 0.18284
2.91700, 0.17036
2.91800, 0.15835
2.91900, 0.14724
2.92000, 0.13748
2.92100, 0.12948
2.92200, 0.12368
2.92300, 0.12051
2.92400, 0.12040
2.92500, 0.12365
2.92600, 0.12991
2.92700, 0.13861
2.92800, 0.14921
2.92900, 0.16114
2.93000, 0.17384
2.93100, 0.18675
2.93200, 0.19932
2.93300, 0.21098
2.93400, 0.22120
2.93500, 0.22942
2.93600, 0.23508
2.93700, 0.23764
2.93800, 0.23655
2.93900, 0.23126
2.94000, 0.22142
2.94100, 0.20765
2.94200, 0.19088
2.94300, 0.17205
2.94400, 0.15209
2.94500, 0.13192
2.94600, 0.11248
2.94700, 0.09469
2.94800, 0.07940
2.94900, 0.06737
2.95000, 0.05935
2.95100, 0.05611
2.95200, 0.05839
2.95300, 0.06695
2.95400, 0.08254
2.95500, 0.10541
2.95600, 0.13341
2.95700, 0.16362
2.95800, 0.19314
2.95900, 0.21909
2.96000, 0.23855
2.96100, 0.24864
2.96200, 0.24652
2.96300, 0.23199
2.96400, 0.20787
2.96500, 0.17716
2.96600, 0.14286
2.96700, 0.10796
2.96800, 0.07548
2.96900, 0.04840
2.97000, 0.02921
2.97100, 0.01791
2.97200, 0.01378
2.97300, 0.01608
2.97400, 0.02408
2.97500, 0.03706
2.97600, 0.05427
2.97700, 0.07499
2.97800, 0.09817
2.97900, 0.12247
2.98000, 0.14648
2.98100, 0.16883
2.98200, 0.18814
2.98300, 0.20301
2.98400, 0.21207
2.98500, 0.21435
2.98600, 0.21083
2.98700, 0.20307
2.98800, 0.19263
2.98900, 0.18108
2.99000, 0.16997
2.99100, 0.16086
2.99200, 0.15528
2.99300, 0.15375
2.99400, 0.15568
2.99500, 0.16038
2.99600, 0.16720
2.99700, 0.17544
2.99800, 0.18445
2.99900, 0.19356
3.00000, 0.20219
3.00100, 0.21029
3.00200, 0.21793
3.00300, 0.22520
3.00400, 0.23217
3.00500, 0.23891
3.00600, 0.24552
3.00700, 0.25207
3.00800, 0.25864
3.00900, 0.26533
3.01000, 0.27224
3.01100, 0.27944
3.01200, 0.28705
3.01300, 0.29514
3.01400, 0.30381
3.01500, 0.31305
3.01600, 0.32228
3.01700, 0.33079
3.01800, 0.33789
3.01900, 0.34284
3.02000, 0.34494
3.02100, 0.34348
3.02200, 0.33777
3.02300, 0.32787
3.02400, 0.31465
3.02500, 0.29905
3.02600, 0.28199
3.02700, 0.26440
3.02800, 0.24720
3.02900, 0.23132
3.03000, 0.21754
3.03100, 0.20592
3.03200, 0.19636
3.03300, 0.18874
3.03400, 0.18294
3.03500, 0.17885
3.03600, 0.17635
3.03700, 0.17533
3.03800, 0.17562
3.03900, 0.17704
3.04000, 0.17937
3.04100, 0.18242
3.04200, 0.18598
3.04300, 0.18986
3.04400, 0.19386
3.04500, 0.19790
3.04600, 0.20247
3.04700, 0.20825
3.04800, 0.21589
3.04900, 0.22605
3.05000, 0.23938
3.05100, 0.25654
3.05200, 0.27815
3.05300, 0.30352
3.05400, 0.33054
3.05500, 0.35705
3.05600, 0.38087
3.05700, 0.39983
3.05800, 0.41177
3.05900, 0.41451
3.06000, 0.40648
3.06100, 0.38870
3.06200, 0.36294
3.06300, 0.33095
3.06400, 0.29446
3.06500, 0.25523
3.06600, 0.21502
3.06700, 0.17554
3.06800, 0.13791
3.06900, 0.10255
3.07000, 0.06987
3.07100, 0.04027
3.07200, 0.01415
3.07300, -0.00809
3.07400, -0.02604
3.07500, -0.03936
3.07600, -0.04794
3.07700, -0.05174
3.07800, -0.05071
3.07900, -0.04482
3.08000, -0.03403
3.08100, -0.01828
3.08200, 0.00243
3.08300, 0.02747
3.08400, 0.05553
3.08500, 0.08524
3.08600, 0.11526
3.08700, 0.14423
3.08800, 0.17078
3.08900, 0.19358
3.09000, 0.21157
3.09100, 0.22508
3.09200, 0.23477
3.09300, 0.24131
3.09400, 0.24537
3.09500, 0.24763
3.09600, 0.24875
3.09700, 0.24939
3.09800, 0.24989
3.09900, 0.25024
3.10000, 0.25042
3.10100, 0.25042
3.10200, 0.25021
3.10300, 0.24979
3.10400, 0.24912
3.10500, 0.24814
3.10600, 0.24657
3.10700, 0.24408
3.10800, 0.24033
3.10900, 0.23500
3.11000, 0.22774
3.11100, 0.21823
3.11200, 0.20616
3.11300, 0.19175
3.11400, 0.17582
3.11500, 0.15919
3.11600, 0.14269
3.11700, 0.12715
3.11800, 0.11339
3.11900, 0.10226
3.12000, 0.09433
3.12100, 0.08923
3.12200, 0.08634
3.12300, 0.08503
3.12400, 0.08466
3.12500, 0.08462
3.12600, 0.08428
3.12700, 0.08304
3.12800, 0.08143
3.12900, 0.08108
3.13000, 0.08367
3.13100, 0.09087
3.13200, 0.10438
3.13300, 0.12587
3.13400, 0.15703
3.13500, 0.19865
3.13600, 0.24790
3.13700, 0.30104
3.13800, 0.35433
3.13900, 0.40401
3.14000, 0.44633
3.14100, 0.47756
3.14200, 0.49408
3.14300, 0.49555
3.14400, 0.48494
3.14500, 0.46535
3.14600, 0.43989
3.14700, 0.41166
3.14800, 0.38378
3.14900, 0.35935
3.15000, 0.34070
3.15100, 0.32698
3.15200, 0.31659
3.15300, 0.30790
3.15400, 0.29929
3.15500, 0.28914
3.15600, 0.27581
3.15700, 0.25777
3.15800, 0.23512
3.15900, 0.20958
3.16000, 0.18298
3.16100, 0.15712
3.16200, 0.13382
3.16300, 0.11488
3.16400, 0.10212
3.16500, 0.09681
3.16600, 0.09803
3.16700, 0.10436
3.16800, 0.11434
3.16900, 0.12654
3.17000, 0.13953
3.17100, 0.15185
3.17200, 0.16212
3.17300, 0.17004
3.17400, 0.17636
3.17500, 0.18191
3.17600, 0.18748
3.17700, 0.19389
3.17800, 0.20194
3.17900, 0.21246
3.18000, 0.22594
3.18100, 0.24165
3.18200, 0.25858
3.18300, 0.27573
3.18400, 0.29206
3.18500, 0.30656
3.18600, 0.31822
3.18700, 0.32603
3.18800, 0.32944
3.18900, 0.32827
3.19000, 0.32238
3.19100, 0.31162
3.19200, 0.29586
3.19300, 0.27495
3.19400, 0.24874
3.19500, 0.21739
3.19600, 0.18221
3.19700, 0.14481
3.19800, 0.10676
3.19900, 0.06967
3.20000, 0.03512
3.20100, 0.00472
3.20200, -0.02001
3.20300, -0.03851
3.20400, -0.05123
3.20500, -0.05864
3.20600, -0.06121
3.20700, -0.05941
3.20800, -0.05372
3.20900, -0.04462
3.21000, -0.03257
3.21100, -0.01805
3.21200, -0.00156
3.21300, 0.01642
3.21400, 0.03542
3.21500, 0.05494
3.21600, 0.07451
3.21700, 0.09365
3.21800, 0.11201
3.21900, 0.12939
3.22000, 0.14557
3.22100, 0.16035
3.22200, 0.17352
3.22300, 0.18486
3.22400, 0.19418
3.22500, 0.20139
3.22600, 0.20692
3.22700, 0.21129
3.22800, 0.21503
3.22900, 0.21868
3.23000, 0.22277
3.23100, 0.22783
3.23200, 0.23436
3.23300, 0.24217
3.23400, 0.25039
3.23500, 0.25817
3.23600, 0.26462
3.23700, 0.26889
3.23800, 0.27008
3.23900, 0.26734
3.24000, 0.26010
3.24100, 0.24896
3.24200, 0.23479
3.24300, 0.21846
3.24400, 0.20083
3.24500, 0.18277
3.24600, 0.16515
3.24700, 0.14881
3.24800, 0.13403
3.24900, 0.12060
3.25000, 0.10827
3.25100, 0.09679
3.25200, 0.08593
3.25300, 0.07544
3.25400, 0.06508
3.25500, 0.05468
3.25600, 0.04427
3.25700, 0.03397
3.25800, 0.02387
3.25900, 0.01409
3.26000, 0.00471
3.26100, -0.00414
3.26200, -0.01236
3.26300, -0.01927
3.26400, -0.02378
3.26500, -0.02474
3.26600, -0.02100
3.26700, -0.01144
3.26800, 0.00509
3.26900, 0.02973
3.27000, 0.06292
3.27100, 0.10266
3.27200, 0.14637
3.27300, 0.19150
3.27400, 0.23548
3.27500, 0.27575
3.27600, 0.30973
3.27700, 0.33498
3.27800, 0.35110
3.27900, 0.35956
3.28000, 0.36189
3.28100, 0.35963
3.28200, 0.35432
3.28300, 0.34750
3.28400, 0.34069
3.28500, 0.33507
3.28600, 0.33047
3.28700, 0.32647
3.28800, 0.32262
3.28900, 0.31846
3.29000, 0.31357
3.29100, 0.30750
3.29200, 0.29984
3.29300, 0.29093
3.29400, 0.28176
3.29500, 0.27337
3.29600, 0.26675
3.29700, 0.26294
3.29800, 0.26296
3.29900, 0.26782
3.30000, 0.27810
3.30100, 0.29286
3.30200, 0.31081
3.30300, 0.33067
3.30400, 0.35117
3.30500, 0.37102
3.30600, 0.38894
3.30700, 0.40367
3.30800, 0.41429
3.30900, 0.42018
3.31000, 0.42075
3.31100, 0.41540
3.31200, 0.40352
3.31300, 0.38451
3.31400, 0.35777
3.31500, 0.32332
3.31600, 0.28334
3.31700, 0.24048
3.31800, 0.19738
3.31900, 0.15669
3.32000, 0.12104
3.32100, 0.09309
3.32200, 0.07533
3.32300, 0.06769
3.32400, 0.06785
3.32500, 0.07344
3.32600, 0.08205
3.32700, 0.09131
3.32800, 0.09882
3.32900, 0.10219
3.33000, 0.09988
3.33100, 0.09324
3.33200, 0.08419
3.33300, 0.07469
3.33400, 0.06667
3.33500, 0.06208
3.33600, 0.06285
3.33700, 0.07083
3.33800, 0.08597
3.33900, 0.10660
3.34000, 0.13100
3.34100, 0.15746
3.34200, 0.18425
3.34300, 0.20966
3.34400, 0.23196
3.34500, 0.24978
3.34600, 0.26283
3.34700, 0.27110
3.34800, 0.27455
3.34900, 0.27313
3.35000, 0.26682
3.35100, 0.25558
3.35200, 0.23942
3.35300, 0.21920
3.35400, 0.19650
3.35500, 0.17291
3.35600, 0.15003
3.35700, 0.12946
3.35800, 0.11279
3.35900, 0.10162
3.36000, 0.09711
3.36100, 0.09895
3.36200, 0.10655
3.36300, 0.11930
3.36400, 0.13660
3.36500, 0.15786
3.36600, 0.18246
3.36700, 0.20980
3.36800, 0.23885
3.36900, 0.26827
3.37000, 0.29671
3.37100, 0.32282
3.37200, 0.34524
3.37300, 0.36263
3.37400, 0.37363
3.37500, 0.37741
3.37600, 0.37487
3.37700, 0.36725
3.37800, 0.35577
3.37900, 0.34169
3.38000, 0.32622
3.38100, 0.31062
3.38200, 0.29608
3.38300, 0.28307
3.38400, 0.27148
3.38500, 0.26118
3.38600, 0.25204
3.38700, 0.24393
3.38800, 0.23672
3.38900, 0.23028
3.39000, 0.22453
3.39100, 0.21957
3.39200, 0.21554
3.39300, 0.21258
3.39400, 0.21081
3.39500, 0.21039
3.39600, 0.21144
3.39700, 0.21409
3.39800, 0.21816
3.39900, 0.22324
3.40000, 0.22892
3.40100, 0.23479
3.40200, 0.24043
3.40300, 0.24543
3.40400, 0.24937
3.40500, 0.25191
3.40600, 0.25297
3.40700, 0.25248
3.40800, 0.25041
3.40900, 0.24671
3.41000, 0.24133
3.41100, 0.23423
3.41200, 0.22537
3.41300, 0.21508
3.41400, 0.20396
3.41500, 0.19259
3.41600, 0.18159
3.41700, 0.17156
3.41800, 0.16311
3.41900, 0.15683
3.42000, 0.15307
3.42100, 0.15136
3.42200, 0.15108
3.42300, 0.15162
3.42400, 0.15235
3.42500, 0.15265
3.42600, 0.15190
3.42700, 0.14952
3.42800, 0.14555
3.42900, 0.14057
3.43000, 0.13515
3.43100, 0.12985
3.43200, 0.12526
3.43300, 0.12194
3.43400, 0.12048
3.43500, 0.12124
3.43600, 0.12397
3.43700, 0.12831
3.43800, 0.13389
3.43900, 0.14034
3.44000, 0.14730
3.44100, 0.15440
3.44200, 0.16127
3.44300, 0.16758
3.44400, 0.17298
3.44500, 0.17716
3.44600, 0.17980
3.44700, 0.18056
3.44800, 0.17911
3.44900, 0.17514
3.45000, 0.16863
3.45100, 0.16056
3.45200, 0.15207
3.45300, 0.14431
3.45400, 0.13843
3.45500, 0.13558
3.45600, 0.13691
3.45700, 0.14348
3.45800, 0.15514
3.45900, 0.17079
3.46000, 0.18930
3.46100, 0.20952
3.46200, 0.23033
3.46300, 0.25060
3.46400, 0.26920
3.46500, 0.28517
3.46600, 0.29814
3.46700, 0.30782
3.46800, 0.31393
3.46900, 0.31619
3.47000, 0.31431
3.47100, 0.30802
3.47200, 0.29709
3.47300, 0.28209
3.47400, 0.26422
3.47500, 0.24470
3.47600, 0.22474
3.47700, 0.20556
3.47800, 0.18836
3.47900, 0.17437
3.48000, 0.16443
3.48100, 0.15836
3.48200, 0.15576
3.48300, 0.15624
3.48400, 0.15941
3.48500, 0.16489
3.48600, 0.17227
3.48700, 0.18120
3.48800, 0.19155
3.48900, 0.20340
3.49000, 0.21684
3.49100, 0.23195
3.49200, 0.24882
3.49300, 0.26753
3.49400, 0.28816
3.49500, 0.31050
3.49600, 0.33345
3.49700, 0.35576
3.49800, 0.37617
3.49900, 0.39342
3.50000, 0.40626
3.50100, 0.41344
3.50200, 0.41380
3.50300, 0.40771
3.50400, 0.39669
3.50500, 0.38227
3.50600, 0.36599
3.50700, 0.34939
3.50800, 0.33399
3.50900, 0.32134
3.51000, 0.31234
3.51100, 0.30609
3.51200, 0.30135
3.51300, 0.29688
3.51400, 0.29147
3.51500, 0.28388
3.51600, 0.27288
3.51700, 0.25736
3.51800, 0.23786
3.51900, 0.21619
3.52000, 0.19415
3.52100, 0.17356
3.52200, 0.15624
3.52300, 0.14401
3.52400, 0.13868
3.52500, 0.14121
3.52600, 0.15019
3.52700, 0.16374
3.52800, 0.18003
3.52900, 0.19720
3.53000, 0.21340
3.53100, 0.22677
3.53200, 0.23560
3.53300, 0.23977
3.53400, 0.24043
3.53500, 0.23871
3.53600, 0.23575
3.53700, 0.23270
3.53800, 0.23071
3.53900, 0.23092
3.54000, 0.23399
3.54100, 0.23926
3.54200, 0.24583
3.54300, 0.25281
3.54400, 0.25929
3.54500, 0.26439
3.54600, 0.26719
3.54700, 0.26687
3.54800, 0.26325
3.54900, 0.25668
3.55000, 0.24751
3.55100, 0.23610
3.55200, 0.22279
3.55300, 0.20795
3.55400, 0.19191
3.55500, 0.17514
3.55600, 0.15838
3.55700, 0.14244
3.55800, 0.12811
3.55900, 0.11618
3.56000, 0.10745
3.56100, 0.10273
3.56200, 0.10274
3.56300, 0.10741
3.56400, 0.11609
3.56500, 0.12813
3.56600, 0.14285
3.56700, 0.15959
3.56800, 0.17769
3.56900, 0.19649
3.57000, 0.21523
3.57100, 0.23294
3.57200, 0.24859
3.57300, 0.26117
3.57400, 0.26964
3.57500, 0.27300
3.57600, 0.27023
3.57700, 0.26043
3.57800, 0.24465
3.57900, 0.22525
3.58000, 0.20461
3.58100, 0.18514
3.58200, 0.16922
3.58300, 0.15925
3.58400, 0.15761
3.58500, 0.16570
3.58600, 0.18221
3.58700, 0.20538
3.58800, 0.23347
3.58900, 0.26472
3.59000, 0.29738
3.59100, 0.32970
3.59200, 0.35998
3.59300, 0.38733
3.59400, 0.41137
3.59500, 0.43175
3.59600, 0.44811
3.59700, 0.46009
3.59800, 0.46735
3.59900, 0.46952
3.60000, 0.46647
3.60100, 0.45868
3.60200, 0.44668
3.60300, 0.43106
3.60400, 0.41235
3.60500, 0.39113
3.60600, 0.36795
3.60700, 0.34337
3.60800, 0.31789
3.60900, 0.29198
3.61000, 0.26613
3.61100, 0.24080
3.61200, 0.21648
3.61300, 0.19362
3.61400, 0.17272
3.61500, 0.15415
3.61600, 0.13812
3.61700, 0.12479
3.61800, 0.11432
3.61900, 0.10687
3.62000, 0.10259
3.62100, 0.10166
3.62200, 0.10418
3.62300, 0.10969
3.62400, 0.11735
3.62500, 0.12631
3.62600, 0.13570
3.62700, 0.14467
3.62800, 0.15236
3.62900, 0.15793
3.63000, 0.16088
3.63100, 0.16172
3.63200, 0.16110
3.63300, 0.15965
3.63400, 0.15804
3.63500, 0.15690
3.63600, 0.15688
3.63700, 0.15858
3.63800, 0.16180
3.63900, 0.16589
3.64000, 0.17015
3.64100, 0.17389
3.64200, 0.17643
3.64300, 0.17707
3.64400, 0.17513
3.64500, 0.17030
3.64600, 0.16323
3.64700, 0.15472
3.64800, 0.14556
3.64900, 0.13654
3.65000, 0.12847
3.65100, 0.12214
3.65200, 0.11828
3.65300, 0.11678
3.65400, 0.11699
3.65500, 0.11822
3.65600, 0.11983
3.65700, 0.12114
3.65800, 0.12147
3.65900, 0.12017
3.66000, 0.11682
3.66100, 0.11163
3.66200, 0.10490
3.66300, 0.09694
3.66400, 0.08806
3.66500, 0.07856
3.66600, 0.06874
3.66700, 0.05892
3.66800, 0.04934
3.66900, 0.04023
3.67000, 0.03184
3.67100, 0.02438
3.67200, 0.01808
3.67300, 0.01317
3.67400, 0.00988
3.67500, 0.00827
3.67600, 0.00796
3.67700, 0.00852
3.67800, 0.00951
3.67900, 0.01049
3.68000, 0.01103
3.68100, 0.01069
3.68200, 0.00908
3.68300, 0.00632
3.68400, 0.00289
3.68500, -0.00074
3.68600, -0.00411
3.68700, -0.00674
3.68800, -0.00815
3.68900, -0.00788
3.69000, -0.00569
3.69100, -0.00190
3.69200, 0.00310
3.69300, 0.00888
3.69400, 0.01505
3.69500, 0.02121
3.69600, 0.02695
3.69700, 0.03190
3.69800, 0.03615
3.69900, 0.04004
3.70000, 0.04394
3.70100, 0.04821
3.70200, 0.05321
3.70300, 0.05930
3.70400, 0.06685
3.70500, 0.07604
3.70600, 0.08669
3.70700, 0.09853
3.70800, 0.11131
3.70900, 0.12477
3.71000, 0.13866
3.71100, 0.15272
3.71200, 0.16669
3.71300, 0.18023
3.71400, 0.19296
3.71500, 0.20449
3.71600, 0.21445
3.71700, 0.22245
3.71800, 0.22811
3.71900, 0.23104
3.72000, 0.23117
3.72100, 0.22913
3.72200, 0.22567
3.72300, 0.22154
3.72400, 0.21746
3.72500, 0.21419
3.72600, 0.21247
3.72700, 0.21299
3.72800, 0.21587
3.72900, 0.22088
3.73000, 0.22780
3.73100, 0.23638
3.73200, 0.24639
3.73300, 0.25760
3.73400, 0.26977
3.73500, 0.28251
3.73600, 0.29500
3.73700, 0.30641
3.73800, 0.31588
3.73900, 0.32255
3.74000, 0.32558
3.74100, 0.32410
3.74200, 0.31738
3.74300, 0.30576
3.74400, 0.29025
3.74500, 0.27189
3.74600, 0.25170
3.74700, 0.23072
3.74800, 0.20996
3.74900, 0.19046
3.75000, 0.17293
3.75100, 0.15734
3.75200, 0.14358
3.75300, 0.13151
3.75400, 0.12102
3.75500, 0.11199
3.75600, 0.10428
3.75700, 0.09780
3.75800, 0.09266
3.75900, 0.08911
3.76000, 0.08741
3.76100, 0.08779
3.76200, 0.09051
3.76300, 0.09581
3.76400, 0.10396
3.76500, 0.11487
3.76600, 0.12779
3.76700, 0.14182
3.76800, 0.15609
3.76900, 0.16974
3.77000, 0.18188
3.77100, 0.19163
3.77200, 0.19822
3.77300, 0.20173
3.77400, 0.20280
3.77500, 0.20206
3.77600, 0.20015
3.77700, 0.19771
3.77800, 0.19537
3.77900, 0.19377
3.78000, 0.19341
3.78100, 0.19449
3.78200, 0.19718
3.78300, 0.20162
3.78400, 0.20798
3.78500, 0.21641
3.78600, 0.22708
3.78700, 0.24008
3.78800, 0.25480
3.78900, 0.27025
3.79000, 0.28541
3.79100, 0.29927
3.79200, 0.31083
3.79300, 0.31906
3.79400, 0.32298
3.79500, 0.32204
3.79600, 0.31682
3.79700, 0.30799
3.79800, 0.29626
3.79900, 0.28232
3.80000, 0.26687
3.80100, 0.25061
3.80200, 0.23420
3.80300, 0.21801
3.80400, 0.20225
3.80500, 0.18711
3.80600, 0.17280
3.80700, 0.15951
3.80800, 0.14745
3.80900, 0.13681
3.81000, 0.12771
3.81100, 0.12011
3.81200, 0.11394
3.81300, 0.10914
3.81400, 0.10564
3.81500, 0.10337
3.81600, 0.10226
3.81700, 0.10225
3.81800, 0.10321
3.81900, 0.10500
3.82000, 0.10748
3.82100, 0.11049
3.82200, 0.11390
3.82300, 0.11756
3.82400, 0.12132
3.82500, 0.12504
3.82600, 0.12859
3.82700, 0.13182
3.82800, 0.13460
3.82900, 0.13680
3.83000, 0.13827
3.83100, 0.13889
3.83200, 0.13853
3.83300, 0.13726
3.83400, 0.13524
3.83500, 0.13264
3.83600, 0.12964
3.83700, 0.12639
3.83800, 0.12306
3.83900, 0.11983
3.84000, 0.11681
3.84100, 0.11400
3.84200, 0.11139
3.84300, 0.10896
3.84400, 0.10671
3.84500, 0.10462
3.84600, 0.10267
3.84700, 0.10092
3.84800, 0.09997
3.84900, 0.10076
3.85000, 0.10419
3.85100, 0.11121
3.85200, 0.12274
3.85300, 0.13970
3.85400, 0.16303
3.85500, 0.19272
3.85600, 0.22691
3.85700, 0.26345
3.85800, 0.30022
3.85900, 0.33509
3.86000, 0.36593
3.86100, 0.39062
3.86200, 0.40722
3.86300, 0.41573
3.86400, 0.41717
3.86500, 0.41259
3.86600, 0.40305
3.86700, 0.38959
3.86800, 0.37325
3.86900, 0.35510
3.87000, 0.33585
3.87100, 0.31563
3.87200, 0.29446
3.87300, 0.27237
3.87400, 0.24938
3.87500, 0.22552
3.87600, 0.20083
3.87700, 0.17536
3.87800, 0.14959
3.87900, 0.12416
3.88000, 0.09977
3.88100, 0.07708
3.88200, 0.05675
3.88300, 0.03947
3.88400, 0.02590
3.88500, 0.01639
3.88600, 0.01067
3.88700, 0.00838
3.88800, 0.00915
3.88900, 0.01264
3.89000, 0.01847
3.89100, 0.02630
3.89200, 0.03577
3.89300, 0.04656
3.89400, 0.05841
3.89500, 0.07102
3.89600, 0.08412
3.89700, 0.09742
3.89800, 0.11065
3.89900, 0.12351
3.90000, 0.13571
3.90100, 0.14692
3.90200, 0.15677
3.90300, 0.16494
3.90400, 0.17107
3.90500, 0.17482
3.90600, 0.17585
3.90700, 0.17387
3.90800, 0.16919
3.90900, 0.16242
3.91000, 0.15417
3.91100, 0.14506
3.91200, 0.13571
3.91300, 0.12672
3.91400, 0.11871
3.91500, 0.11202
3.91600, 0.10643
3.91700, 0.10165
3.91800, 0.09740
3.91900, 0.09339
3.92000, 0.08935
3.92100, 0.08499
3.92200, 0.08007
3.92300, 0.07487
3.92400, 0.06990
3.92500, 0.06567
3.92600, 0.06272
3.92700, 0.06155
3.92800, 0.06270
3.92900, 0.06668
3.93000, 0.07360
3.93100, 0.08281
3.93200, 0.09356
3.93300, 0.10509
3.93400, 0.11665
3.93500, 0.12749
3.93600, 0.13685
3.93700, 0.14409
3.93800, 0.14941
3.93900, 0.15346
3.94000, 0.15690
3.94100, 0.16040
3.94200, 0.16460
3.94300, 0.17016
3.94400, 0.17775
3.94500, 0.18762
3.94600, 0.19930
3.94700, 0.21220
3.94800, 0.22577
3.94900, 0.23942
3.95000, 0.25259
3.95100, 0.26471
3.95200, 0.27524
3.95300, 0.28406
3.95400, 0.29121
3.95500, 0.29676
3.95600, 0.30075
3.95700, 0.30325
3.95800, 0.30432
3.95900, 0.30401
3.96000, 0.30272
3.96100, 0.30151
3.96200, 0.30151
3.96300, 0.30384
3.96400, 0.30962
3.96500, 0.31999
3.96600, 0.33607
3.96700, 0.35874
3.96800, 0.38684
3.96900, 0.41817
3.97000, 0.45051
3.97100, 0.48166
3.97200, 0.50941
3.97300, 0.53154
3.97400, 0.54587
3.97500, 0.55144
3.97600, 0.54969
3.97700, 0.54232
3.97800, 0.53103
3.97900, 0.51752
3.98000, 0.50348
3.98100, 0.49060
3.98200, 0.48039
3.98300, 0.47254
3.98400, 0.46587
3.98500, 0.45922
3.98600, 0.45139
3.98700, 0.44120
3.98800, 0.42747
3.98900, 0.40902
3.99000, 0.38546
3.99100, 0.35783
3.99200, 0.32733
3.99300, 0.29515
3.99400, 0.26250
3.99500, 0.23057
3.99600, 0.20058
3.99700, 0.17360
3.99800, 0.14986
3.99900, 0.12914
4.00000, 0.11123
4.00100, 0.09589
4.00200, 0.08292
4.00300, 0.07209
4.00400, 0.06319
4.00500, 0.05587
4.00600, 0.04957
4.00700, 0.04371
4.00800, 0.03770
4.00900, 0.03095
4.01000, 0.02288
4.01100, 0.01291
4.01200, 0.00058
4.01300, -0.01340
4.01400, -0.02779
4.01500, -0.04132
4.01600, -0.05275
4.01700, -0.06082
4.01800, -0.06427
4.01900, -0.06186
4.02000, -0.05319
4.02100, -0.03939
4.02200, -0.02175
4.02300, -0.00158
4.02400, 0.01985
4.02500, 0.04122
4.02600, 0.06125
4.02700, 0.07877
4.02800, 0.09356
4.02900, 0.10589
4.03000, 0.11603
4.03100, 0.12424
4.03200, 0.13078
4.03300, 0.13591
4.03400, 0.13990
4.03500, 0.14310
4.03600, 0.14599
4.03700, 0.14907
4.03800, 0.15285
4.03900, 0.15782
4.04000, 0.16448
4.04100, 0.17335
4.04200, 0.18479
4.04300, 0.19830
4.04400, 0.21289
4.04500, 0.22763
4.04600, 0.24153
4.04700, 0.25364
4.04800, 0.26300
4.04900, 0.26865
4.05000, 0.27020
4.05100, 0.26830
4.05200, 0.26366
4.05300, 0.25701
4.05400, 0.24910
4.05500, 0.24066
4.05600, 0.23240
4.05700, 0.22505
4.05800, 0.21909
4.05900, 0.21490
4.06000, 0.21287
4.06100, 0.21340
4.06200, 0.21687
4.06300, 0.22366
4.06400, 0.23417
4.06500, 0.24830
4.06600, 0.26517
4.06700, 0.28379
4.06800, 0.30320
4.06900, 0.32241
4.07000, 0.34046
4.07100, 0.35636
4.07200, 0.36918
4.07300, 0.37836
4.07400, 0.38348
4.07500, 0.38415
4.07600, 0.37994
4.07700, 0.37047
4.07800, 0.35531
4.07900, 0.33407
4.08000, 0.30704
4.08100, 0.27564
4.08200, 0.24144
4.08300, 0.20598
4.08400, 0.17084
4.08500, 0.13756
4.08600, 0.10769
4.08700, 0.08260
4.08800, 0.06213
4.08900, 0.04542
4.09000, 0.03163
4.09100, 0.01991
4.09200, 0.00941
4.09300, -0.00072
4.09400, -0.01132
4.09500, -0.02247
4.09600, -0.03299
4.09700, -0.04155
4.09800, -0.04684
4.09900, -0.04754
4.10000, -0.04233
4.10100, -0.02990
4.10200, -0.00918
4.10300, 0.01889
4.10400, 0.05251
4.10500, 0.08988
4.10600, 0.12918
4.10700, 0.16862
4.10800, 0.20637
4.10900, 0.24064
4.11000, 0.27023
4.11100, 0.29494
4.11200, 0.31467
4.11300, 0.32933
4.11400, 0.33880
4.11500, 0.34300
4.11600, 0.34181
4.11700, 0.33526
4.11800, 0.32415
4.11900, 0.30964
4.12000, 0.29289
4.12100, 0.27506
4.12200, 0.25731
4.12300, 0.24082
4.12400, 0.22672
4.12500, 0.21574
4.12600, 0.20784
4.12700, 0.20291
4.12800, 0.20086
4.12900, 0.20158
4.13000, 0.20498
4.13100, 0.21095
4.13200, 0.21937
4.13300, 0.23006
4.13400, 0.24278
4.13500, 0.25729
4.13600, 0.27338
4.13700, 0.29080
4.13800, 0.30932
4.13900, 0.32871
4.14000, 0.34834
4.14100, 0.36695
4.14200, 0.38320
4.14300, 0.39578
4.14400, 0.40335
4.14500, 0.40460
4.14600, 0.39819
4.14700, 0.38316
4.14800, 0.36108
4.14900, 0.33459
4.15000, 0.30636
4.15100, 0.27904
4.15200, 0.25529
4.15300, 0.23776
4.15400, 0.22909
4.15500, 0.23005
4.15600, 0.23841
4.15700, 0.25167
4.15800, 0.26731
4.15900, 0.28285
4.16000, 0.29576
4.16100, 0.30355
4.16200, 0.30406
4.16300, 0.29760
4.16400, 0.28551
4.16500, 0.26913
4.16600, 0.24982
4.16700, 0.22892
4.16800, 0.20779
4.16900, 0.18775
4.17000, 0.16985
4.17100, 0.15466
4.17200, 0.14268
4.17300, 0.13444
4.17400, 0.13044
4.17500, 0.13120
4.17600, 0.13724
4.17700, 0.14888
4.17800, 0.16510
4.17900, 0.18432
4.18000, 0.20497
4.18100, 0.22547
4.18200, 0.24424
4.18300, 0.25971
4.18400, 0.27031
4.18500, 0.27526
4.18600, 0.27501
4.18700, 0.27013
4.18800, 0.26118
4.18900, 0.24874
4.19000, 0.23335
4.19100, 0.21560
4.19200, 0.19607
4.19300, 0.17556
4.19400, 0.15497
4.19500, 0.13518
4.19600, 0.11707
4.19700, 0.10154
4.19800, 0.08948
4.19900, 0.08175
4.20000, 0.07866
4.20100, 0.07955
4.20200, 0.08372
4.20300, 0.09045
4.20400, 0.09903
4.20500, 0.10873
4.20600, 0.11885
4.20700, 0.12874
4.20800, 0.13834
4.20900, 0.14777
4.21000, 0.15720
4.21100, 0.16676
4.21200, 0.17660
4.21300, 0.18687
4.21400, 0.19771
4.21500, 0.20895
4.21600, 0.22000
4.21700, 0.23019
4.21800, 0.23888
4.21900, 0.24541
4.22000, 0.24915
4.22100, 0.24943
4.22200, 0.24570
4.22300, 0.23807
4.22400, 0.22690
4.22500, 0.21256
4.22600, 0.19541
4.22700, 0.17581
4.22800, 0.15414
4.22900, 0.13075
4.23000, 0.10638
4.23100, 0.08224
4.23200, 0.05964
4.23300, 0.03985
4.23400, 0.02416
4.23500, 0.01384
4.23600, 0.01019
4.23700, 0.01420
4.23800, 0.02502
4.23900, 0.04109
4.24000, 0.06082
4.24100, 0.08265
4.24200, 0.10499
4.24300, 0.12628
4.24400, 0.14495
4.24500, 0.16005
4.24600, 0.17155
4.24700, 0.17950
4.24800, 0.18395
4.24900, 0.18495
4.25000, 0.18255
4.25100, 0.17679
4.25200, 0.16779
4.25300, 0.15598
4.25400, 0.14199
4.25500, 0.12639
4.25600, 0.10979
4.25700, 0.09278
4.25800, 0.07596
4.25900, 0.05992
4.26000, 0.04521
4.26100, 0.03226
4.26200, 0.02153
4.26300, 0.01345
4.26400, 0.00847
4.26500, 0.00703
4.26600, 0.00957
4.26700, 0.01643
4.26800, 0.02733
4.26900, 0.04172
4.27000, 0.05908
4.27100, 0.07886
4.27200, 0.10053
4.27300, 0.12357
4.27400, 0.14742
4.27500, 0.17151
4.27600, 0.19519
4.27700, 0.21780
4.27800, 0.23869
4.27900, 0.25721
4.28000, 0.27270
4.28100, 0.28450
4.28200, 0.29206
4.28300, 0.29542
4.28400, 0.29487
4.28500, 0.29068
4.28600, 0.28313
4.28700, 0.27249
4.28800, 0.25905
4.28900, 0.24309
4.29000, 0.22522
4.29100, 0.20650
4.29200, 0.18806
4.29300, 0.17101
4.29400, 0.15646
4.29500, 0.14553
4.29600, 0.13931
4.29700, 0.13865
4.29800, 0.14260
4.29900, 0.14959
4.30000, 0.15801
4.30100, 0.16629
4.30200, 0.17283
4.30300, 0.17604
4.30400, 0.17436
4.30500, 0.16725
4.30600, 0.15566
4.30700, 0.14065
4.30800, 0.12329
4.30900, 0.10464
4.31000, 0.08575
4.31100, 0.06770
4.31200, 0.05144
4.31300, 0.03740
4.31400, 0.02581
4.31500, 0.01688
4.31600, 0.01083
4.31700, 0.00788
4.31800, 0.00826
4.31900, 0.01217
4.32000, 0.01938
4.32100, 0.02905
4.32200, 0.04028
4.32300, 0.05217
4.32400, 0.06383
4.32500, 0.07437
4.32600, 0.08288
4.32700, 0.08872
4.32800, 0.09263
4.32900, 0.09589
4.33000, 0.09976
4.33100, 0.10551
4.33200, 0.11441
4.33300, 0.12774
4.33400, 0.14672
4.33500, 0.17138
4.33600, 0.20001
4.33700, 0.23078
4.33800, 0.26187
4.33900, 0.29146
4.34000, 0.31771
4.34100, 0.33879
4.34200, 0.35321
4.34300, 0.36136
4.34400, 0.36430
4.34500, 0.36310
4.34600, 0.35884
4.34700, 0.35258
4.34800, 0.34540
4.34900, 0.33836
4.35000, 0.33193
4.35100, 0.32581
4.35200, 0.31964
4.35300, 0.31305
4.35400, 0.30568
4.35500, 0.29717
4.35600, 0.28715
4.35700, 0.27540
4.35800, 0.26254
4.35900, 0.24947
4.36000, 0.23710
4.36100, 0.22633
4.36200, 0.21808
4.36300, 0.21325
4.36400, 0.21272
4.36500, 0.21655
4.36600, 0.22364
4.36700, 0.23283
4.36800, 0.24293
4.36900, 0.25278
4.37000, 0.26120
4.37100, 0.26703
4.37200, 0.26923
4.37300, 0.26764
4.37400, 0.26237
4.37500, 0.25355
4.37600, 0.24130
4.37700, 0.22574
4.37800, 0.20699
4.37900, 0.18518
4.38000, 0.16100
4.38100, 0.13587
4.38200, 0.11127
4.38300, 0.08865
4.38400, 0.06949
4.38500, 0.05527
4.38600, 0.04745
4.38700, 0.04714
4.38800, 0.05349
4.38900, 0.06492
4.39000, 0.07987
4.39100, 0.09679
4.39200, 0.11412
4.39300, 0.13030
4.39400, 0.14378
4.39500, 0.15391
4.39600, 0.16120
4.39700, 0.16623
4.39800, 0.16958
4.39900, 0.17184
4.40000, 0.17358
4.40100, 0.17541
4.40200, 0.17779
4.40300, 0.18067
4.40400, 0.18379
4.40500, 0.18689
4.40600, 0.18972
4.40700, 0.19203
4.40800, 0.19356
4.40900, 0.19406
4.41000, 0.19346
4.41100, 0.19191
4.41200, 0.18959
4.41300, 0.18667
4.41400, 0.18331
4.41500, 0.17970
4.41600, 0.17599
4.41700, 0.17237
4.41800, 0.16892
4.41900, 0.16575
4.42000, 0.16294
4.42100, 0.16059
4.42200, 0.15878
4.42300, 0.15761
4.42400, 0.15717
4.42500, 0.15739
4.42600, 0.15800
4.42700, 0.15874
4.42800, 0.15933
4.42900, 0.15949
4.43000, 0.15896
4.43100, 0.15746
4.43200, 0.15481
4.43300, 0.15132
4.43400, 0.14748
4.43500, 0.14376
4.43600, 0.14066
4.43700, 0.13865
4.43800, 0.13821
4.43900, 0.13981
4.44000, 0.14335
4.44100, 0.14801
4.44200, 0.15292
4.44300, 0.15721
4.44400, 0.16002
4.44500, 0.16047
4.44600, 0.15770
4.44700, 0.15106
4.44800, 0.14107
4.44900, 0.12863
4.45000, 0.11463
4.45100, 0.09998
4.45200, 0.08558
4.45300, 0.07231
4.45400, 0.06107
4.45500, 0.05209
4.45600, 0.04478
4.45700, 0.03851
4.45800, 0.03265
4.45900, 0.02655
4.46000, 0.01958
4.46100, 0.01112
4.46200, 0.00081
4.46300, -0.01019
4.46400, -0.02024
4.46500, -0.02770
4.46600, -0.03092
4.46700, -0.02828
4.46800, -0.01811
4.46900, 0.00116
4.47000, 0.02934
4.47100, 0.06406
4.47200, 0.10278
4.47300, 0.14297
4.47400, 0.18210
4.47500, 0.21764
4.47600, 0.24707
4.47700, 0.26843
4.47800, 0.28273
4.47900, 0.29189
4.48000, 0.29786
4.48100, 0.30258
4.48200, 0.30797
4.48300, 0.31599
4.48400, 0.32850
4.48500, 0.34545
4.48600, 0.36437
4.48700, 0.38266
4.48800, 0.39770
4.48900, 0.40691
4.49000, 0.40766
4.49100, 0.39737
4.49200, 0.37421
4.49300, 0.34045
4.49400, 0.29959
4.49500, 0.25516
4.49600, 0.21067
4.49700, 0.16963
4.49800, 0.13556
4.49900, 0.11190
4.50000, 0.09970
4.50100, 0.09709
4.50200, 0.10202
4.50300, 0.11245
4.50400, 0.12633
4.50500, 0.14163
4.50600, 0.15629
4.50700, 0.16858
4.50800, 0.17825
4.50900, 0.18551
4.51000, 0.19057
4.51100, 0.19365
4.51200, 0.19497
4.51300, 0.19474
4.51400, 0.19317
4.51500, 0.19044
4.51600, 0.18670
4.51700, 0.18208
4.51800, 0.17674
4.51900, 0.17080
4.52000, 0.16441
4.52100, 0.15771
4.52200, 0.15086
4.52300, 0.14410
4.52400, 0.13770
4.52500, 0.13193
4.52600, 0.12705
4.52700, 0.12334
4.52800, 0.12107
4.52900, 0.12049
4.53000, 0.12156
4.53100, 0.12386
4.53200, 0.12697
4.53300, 0.13045
4.53400, 0.13387
4.53500, 0.13680
4.53600, 0.13880
4.53700, 0.13968
4.53800, 0.14030
4.53900, 0.14186
4.54000, 0.14555
4.54100, 0.15257
4.54200, 0.16412
4.54300, 0.18139
4.54400, 0.20554
4.54500, 0.23617
4.54600, 0.27114
4.54700, 0.30817
4.54800, 0.34501
4.54900, 0.37940
4.55000, 0.40907
4.55100, 0.43176
4.55200, 0.44571
4.55300, 0.45153
4.55400, 0.45054
4.55500, 0.44404
4.55600, 0.43335
4.55700, 0.41978
4.55800, 0.40464
4.55900, 0.38923
4.56000, 0.37408
4.56100, 0.35887
4.56200, 0.34321
4.56300, 0.32673
4.56400, 0.30906
4.56500, 0.28982
4.56600, 0.26864
4.56700, 0.24537
4.56800, 0.22092
4.56900, 0.19655
4.57000, 0.17347
4.57100, 0.15294
4.57200, 0.13617
4.57300, 0.12441
4.57400, 0.11884
4.57500, 0.11936
4.57600, 0.12434
4.57700, 0.13211
4.57800, 0.14098
4.57900, 0.14926
4.58000, 0.15526
4.58100, 0.15729
4.58200, 0.15410
4.58300, 0.14645
4.58400, 0.13566
4.58500, 0.12308
4.58600, 0.11002
4.58700, 0.09783
4.58800, 0.08783
4.58900, 0.08133
4.59000, 0.07881
4.59100, 0.07981
4.59200, 0.08383
4.59300, 0.09036
4.59400, 0.09891
4.59500, 0.10897
4.59600, 0.12003
4.59700, 0.13162
4.59800, 0.14334
4.59900, 0.15483
4.60000, 0.16572
4.60100, 0.17564
4.60200, 0.18423
4.60300, 0.19111
4.60400, 0.19595
4.60500, 0.19885
4.60600, 0.20046
4.60700, 0.20142
4.60800, 0.20241
4.60900, 0.20408
4.61000, 0.20710
4.61100, 0.21213
4.61200, 0.21958
4.61300, 0.22879
4.61400, 0.23878
4.61500, 0.24860
4.61600, 0.25726
4.61700, 0.26380
4.61800, 0.26724
4.61900, 0.26665
4.62000, 0.26206
4.62100, 0.25453
4.62200, 0.24520
4.62300, 0.23520
4.62400, 0.22566
4.62500, 0.21771
4.62600, 0.21248
4.62700, 0.21079
4.62800, 0.21208
4.62900, 0.21541
4.63000, 0.21987
4.63100, 0.22450
4.63200, 0.22838
4.63300, 0.23058
4.63400, 0.23017
4.63500, 0.22693
4.63600, 0.22132
4.63700, 0.21387
4.63800, 0.20509
4.63900, 0.19549
4.64000, 0.18559
4.64100, 0.17589
4.64200, 0.16700
4.64300, 0.15979
4.64400, 0.15522
4.64500, 0.15428
4.64600, 0.15791
4.64700, 0.16709
4.64800, 0.18279
4.64900, 0.20593
4.65000, 0.23601
4.65100, 0.27111
4.65200, 0.30917
4.65300, 0.34817
4.65400, 0.38609
4.65500, 0.42089
4.65600, 0.45054
4.65700, 0.47335
4.65800, 0.48902
4.65900, 0.49764
4.66000, 0.49931
4.66100, 0.49412
4.66200, 0.48215
4.66300, 0.46351
4.66400, 0.43831
4.66500, 0.40766
4.66600, 0.37371
4.66700, 0.33864
4.66800, 0.30464
4.66900, 0.27390
4.67000, 0.24862
4.67100, 0.23098
4.67200, 0.22254
4.67300, 0.22223
4.67400, 0.22824
4.67500, 0.23879
4.67600, 0.25209
4.67700, 0.26636
4.67800, 0.27981
4.67900, 0.29068
4.68000, 0.29818
4.68100, 0.30253
4.68200, 0.30399
4.68300, 0.30280
4.68400, 0.29923
4.68500, 0.29353
4.68600, 0.28596
4.68700, 0.27678
4.68800, 0.26622
4.68900, 0.25452
4.69000, 0.24192
4.69100, 0.22866
4.69200, 0.21497
4.69300, 0.20110
4.69400, 0.18727
4.69500, 0.17393
4.69600, 0.16169
4.69700, 0.15117
4.69800, 0.14300
4.69900, 0.13781
4.70000, 0.13621
4.70100, 0.13884
4.70200, 0.14599
4.70300, 0.15657
4.70400, 0.16917
4.70500, 0.18234
4.70600, 0.19466
4.70700, 0.20470
4.70800, 0.21103
4.70900, 0.21227
4.71000, 0.20828
4.71100, 0.20017
4.71200, 0.18911
4.71300, 0.17629
4.71400, 0.16287
4.71500, 0.15003
4.71600, 0.13893
4.71700, 0.13051
4.71800, 0.12462
4.71900, 0.12090
4.72000, 0.11894
4.72100, 0.11838
4.72200, 0.11882
4.72300, 0.11988
4.72400, 0.12117
4.72500, 0.12243
4.72600, 0.12350
4.72700, 0.12423
4.72800, 0.12444
4.72900, 0.12400
4.73000, 0.12275
4.73100, 0.12052
4.73200, 0.11723
4.73300, 0.11304
4.73400, 0.10817
4.73500, 0.10283
4.73600, 0.09727
4.73700, 0.09168
4.73800, 0.08631
4.73900, 0.08137
4.74000, 0.07712
4.74100, 0.07389
4.74200, 0.07198
4.74300, 0.07170
4.74400, 0.07338
4.74500, 0.07731
4.74600, 0.08382
4.74700, 0.09309
4.74800, 0.10481
4.74900, 0.11857
4.75000, 0.13392
4.75100, 0.15046
4.75200, 0.16773
4.75300, 0.18534
4.75400, 0.20284
4.75500, 0.22009
4.75600, 0.23715
4.75700, 0.25411
4.75800, 0.27106
4.75900, 0.28810
4.76000, 0.30530
4.76100, 0.32275
4.76200, 0.34045
4.76300, 0.35804
4.76400, 0.37508
4.76500, 0.39111
4.76600, 0.40570
4.76700, 0.41839
4.76800, 0.42873
4.76900, 0.43629
4.77000, 0.44064
4.77100, 0.44139
4.77200, 0.43814
4.77300, 0.43051
4.77400, 0.41808
4.77500, 0.40049
4.77600, 0.37731
4.77700, 0.34855
4.77800, 0.31562
4.77900, 0.28027
4.78000, 0.24426
4.78100, 0.20937
4.78200, 0.17734
4.78300, 0.14995
4.78400, 0.12888
4.78500, 0.11454
4.78600, 0.10609
4.78700, 0.10262
4.78800, 0.10324
4.78900, 0.10705
4.79000, 0.11316
4.79100, 0.12067
4.79200, 0.12880
4.79300, 0.13717
4.79400, 0.14553
4.79500, 0.15360
4.79600, 0.16112
4.79700, 0.16781
4.79800, 0.17341
4.79900, 0.17766
4.80000, 0.18051
4.80100, 0.18208
4.80200, 0.18250
4.80300, 0.18193
4.80400, 0.18049
4.80500, 0.17832
4.80600, 0.17556
4.80700, 0.17241
4.80800, 0.16932
4.80900, 0.16679
4.81000, 0.16532
4.81100, 0.16542
4.81200, 0.16759
4.81300, 0.17234
4.81400, 0.18012
4.81500, 0.19075
4.81600, 0.20342
4.81700, 0.21727
4.81800, 0.23146
4.81900, 0.24517
4.82000, 0.25754
4.82100, 0.26773
4.82200, 0.27515
4.82300, 0.28009
4.82400, 0.28308
4.82500, 0.28461
4.82600, 0.28520
4.82700, 0.28535
4.82800, 0.28557
4.82900, 0.28634
4.83000, 0.28755
4.83100, 0.28856
4.83200, 0.28869
4.83300, 0.28728
4.83400, 0.28365
4.83500, 0.27714
4.83600, 0.26707
4.83700, 0.25312
4.83800, 0.23612
4.83900, 0.21720
4.84000, 0.19750
4.84100, 0.17812
4.84200, 0.16019
4.84300, 0.14483
4.84400, 0.13312
4.84500, 0.12524
4.84600, 0.12052
4.84700, 0.11829
4.84800, 0.11786
4.84900, 0.11855
4.85000, 0.11967
4.85100, 0.12054
4.85200, 0.12062
4.85300, 0.11983
4.85400, 0.11822
4.85500, 0.11583
4.85600, 0.11271
4.85700, 0.10889
4.85800, 0.10441
4.85900, 0.09934
4.86000, 0.09396
4.86100, 0.08878
4.86200, 0.08432
4.86300, 0.08110
4.86400, 0.07963
4.86500, 0.08042
4.86600, 0.08400
4.86700, 0.09058
4.86800, 0.09933
4.86900, 0.10919
4.87000, 0.11911
4.87100, 0.12801
4.87200, 0.13484
4.87300, 0.13853
4.87400, 0.13809
4.87500, 0.13362
4.87600, 0.12618
4.87700, 0.11690
4.87800, 0.10689
4.87900, 0.09726
4.88000, 0.08913
4.88100, 0.08359
4.88200, 0.08147
4.88300, 0.08247
4.88400, 0.08609
4.88500, 0.09181
4.88600, 0.09912
4.88700, 0.10750
4.88800, 0.11645
4.88900, 0.12545
4.89000, 0.13423
4.89100, 0.14266
4.89200, 0.15063
4.89300, 0.15805
4.89400, 0.16480
4.89500, 0.17077
4.89600, 0.17587
4.89700, 0.18003
4.89800, 0.18338
4.89900, 0.18606
4.90000, 0.18824
4.90100, 0.19006
4.90200, 0.19169
4.90300, 0.19327
4.90400, 0.19495
4.90500, 0.19682
4.90600, 0.19889
4.90700, 0.20116
4.90800, 0.20366
4.90900, 0.20638
4.91000, 0.20934
4.91100, 0.21256
4.91200, 0.21599
4.91300, 0.21948
4.91400, 0.22282
4.91500, 0.22581
4.91600, 0.22827
4.91700, 0.22998
4.91800, 0.23075
4.91900, 0.23039
4.92000, 0.22896
4.92100, 0.22671
4.92200, 0.22390
4.92300, 0.22078
4.92400, 0.21763
4.92500, 0.21469
4.92600, 0.21223
4.92700, 0.21045
4.92800, 0.20933
4.92900, 0.20881
4.93000, 0.20885
4.93100, 0.20937
4.93200, 0.21033
4.93300, 0.21168
4.93400, 0.21333
4.93500, 0.21512
4.93600, 0.21674
4.93700, 0.21791
4.93800, 0.21832
4.93900, 0.21768
4.94000, 0.21569
4.94100, 0.21207
4.94200, 0.20661
4.94300, 0.19943
4.94400, 0.19074
4.94500, 0.18072
4.94600, 0.16956
4.94700, 0.15746
4.94800, 0.14461
4.94900, 0.13122
4.95000, 0.11783
4.95100, 0.10528
4.95200, 0.09439
4.95300, 0.08601
4.95400, 0.08098
4.95500, 0.08011
4.95600, 0.08426
4.95700, 0.09390
4.95800, 0.10834
4.95900, 0.12666
4.96000, 0.14795
4.96100, 0.17128
4.96200, 0.19573
4.96300, 0.22039
4.96400, 0.24435
4.96500, 0.26705
4.96600, 0.28817
4.96700, 0.30743
4.96800, 0.32452
4.96900, 0.33916
4.97000, 0.35104
4.97100, 0.35988
4.97200, 0.36543
4.97300, 0.36767
4.97400, 0.36661
4.97500, 0.36226
4.97600, 0.35462
4.97700, 0.34371
4.97800, 0.32953
4.97900, 0.31213
4.98000, 0.29210
4.98100, 0.27046
4.98200, 0.24825
4.98300, 0.22652
4.98400, 0.20632
4.98500, 0.18868
4.98600, 0.17465
4.98700, 0.16489
4.98800, 0.15884
4.98900, 0.15574
4.99000, 0.15480
4.99100, 0.15524
4.99200, 0.15628
4.99300, 0.15714
4.99400, 0.15708
4.99500, 0.15605
4.99600, 0.15453
4.99700, 0.15305
4.99800, 0.15212
4.99900, 0.15224
5.00000, 0.15392
5.00100, 0.15767
5.00200, 0.16392
5.00300, 0.17275
5.00400, 0.18422
5.00500, 0.19838
5.00600, 0.21526
5.00700, 0.23491
5.00800, 0.25738
5.00900, 0.28267
5.01000, 0.30995
5.01100, 0.33777
5.01200, 0.36465
5.01300, 0.38911
5.01400, 0.40968
5.01500, 0.42488
5.01600, 0.43323
5.01700, 0.43383
5.01800, 0.42749
5.01900, 0.41538
5.02000, 0.39865
5.02100, 0.37845
5.02200, 0.35595
5.02300, 0.33228
5.02400, 0.30859
5.02500, 0.28550
5.02600, 0.26330
5.02700, 0.24223
5.02800, 0.22254
5.02900, 0.20451
5.03000, 0.18837
5.03100, 0.17440
5.03200, 0.16276
5.03300, 0.15342
5.03400, 0.14628
5.03500, 0.14126
5.03600, 0.13828
5.03700, 0.13724
5.03800, 0.13806
5.03900, 0.14063
5.04000, 0.14468
5.04100, 0.14978
5.04200, 0.15550
5.04300, 0.16140
5.04400, 0.16707
5.04500, 0.17206
5.04600, 0.17595
5.04700, 0.17852
5.04800, 0.18015
5.04900, 0.18134
5.05000, 0.18259
5.05100, 0.18440
5.05200, 0.18727
5.05300, 0.19169
5.05400, 0.19813
5.05500, 0.20633
5.05600, 0.21554
5.05700, 0.22497
5.05800, 0.23383
5.05900, 0.24134
5.06000, 0.24673
5.06100, 0.24920
5.06200, 0.24834
5.06300, 0.24474
5.06400, 0.23922
5.06500, 0.23258
5.06600, 0.22561
5.06700, 0.21911
5.06800, 0.21389
5.06900, 0.21071
5.07000, 0.20971
5.07100, 0.21057
5.07200, 0.21297
5.07300, 0.21657
5.07400, 0.22104
5.07500, 0.22607
5.07600, 0.23131
5.07700, 0.23645
5.07800, 0.24122
5.07900, 0.24534
5.08000, 0.24856
5.08100, 0.25060
5.08200, 0.25119
5.08300, 0.25006
5.08400, 0.24698
5.08500, 0.24203
5.08600, 0.23556
5.08700, 0.22794
5.08800, 0.21952
5.08900, 0.21066
5.09000, 0.20171
5.09100, 0.19303
5.09200, 0.18493
5.09300, 0.17758
5.09400, 0.17113
5.09500, 0.16573
5.09600, 0.16153
5.09700, 0.15869
5.09800, 0.15734
5.09900, 0.15764
5.10000, 0.15953
5.10100, 0.16286
5.10200, 0.16744
5.10300, 0.17312
5.10400, 0.17971
5.10500, 0.18705
5.10600, 0.19496
5.10700, 0.20320
5.10800, 0.21130
5.10900, 0.21873
5.11000, 0.22500
5.11100, 0.22958
5.11200, 0.23197
5.11300, 0.23166
5.11400, 0.22820
5.11500, 0.22190
5.11600, 0.21366
5.11700, 0.20440
5.11800, 0.19502
5.11900, 0.18644
5.12000, 0.17955
5.12100, 0.17527
5.12200, 0.17417
5.12300, 0.17591
5.12400, 0.17997
5.12500, 0.18585
5.12600, 0.19304
5.12700, 0.20102
5.12800, 0.20930
5.12900, 0.21738
5.13000, 0.22511
5.13100, 0.23256
5.13200, 0.23982
5.13300, 0.24695
5.13400, 0.25404
5.13500, 0.26117
5.13600, 0.26841
5.13700, 0.27570
5.13800, 0.28249
5.13900, 0.28822
5.14000, 0.29227
5.14100, 0.29407
5.14200, 0.29301
5.14300, 0.28850
5.14400, 0.28001
5.14500, 0.26790
5.14600, 0.25314
5.14700, 0.23671
5.14800, 0.21960
5.14900, 0.20279
5.15000, 0.18728
5.15100, 0.17403
5.15200, 0.16375
5.15300, 0.15637
5.15400, 0.15166
5.15500, 0.14942
5.15600, 0.14944
5.15700, 0.15151
5.15800, 0.15542
5.15900, 0.16093
5.16000, 0.16757
5.16100, 0.17468
5.16200, 0.18157
5.16300, 0.18759
5.16400, 0.19206
5.16500, 0.19433
5.16600, 0.19372
5.16700, 0.18998
5.16800, 0.18399
5.16900, 0.17679
5.17000, 0.16943
5.17100, 0.16295
5.17200, 0.15842
5.17300, 0.15688
5.17400, 0.15928
5.17500, 0.16532
5.17600, 0.17385
5.17700, 0.18369
5.17800, 0.19366
5.17900, 0.20258
5.18000, 0.20928
5.18100, 0.21259
5.18200, 0.21193
5.18300, 0.20835
5.18400, 0.20316
5.18500, 0.19767
5.18600, 0.19317
5.18700, 0.19097
5.18800, 0.19238
5.18900, 0.19857
5.19000, 0.20902
5.19100, 0.22207
5.19200, 0.23602
5.19300, 0.24920
5.19400, 0.25990
5.19500, 0.26645
5.19600, 0.26714
5.19700, 0.26111
5.19800, 0.24955
5.19900, 0.23397
5.20000, 0.21592
5.20100, 0.19692
5.20200, 0.17850
5.20300, 0.16219
5.20400, 0.14939
5.20500, 0.14009
5.20600, 0.13326
5.20700, 0.12788
5.20800, 0.12294
5.20900, 0.11740
5.21000, 0.11025
5.21100, 0.10045
5.21200, 0.08763
5.21300, 0.07306
5.21400, 0.05825
5.21500, 0.04474
5.21600, 0.03405
5.21700, 0.02769
5.21800, 0.02720
5.21900, 0.03394
5.22000, 0.04731
5.22100, 0.06539
5.22200, 0.08625
5.22300, 0.10796
5.22400, 0.12859
5.22500, 0.14619
5.22600, 0.15884
5.22700, 0.16541
5.22800, 0.16684
5.22900, 0.16437
5.23000, 0.15924
5.23100, 0.15270
5.23200, 0.14598
5.23300, 0.14034
5.23400, 0.13696
5.23500, 0.13619
5.23600, 0.13789
5.23700, 0.14190
5.23800, 0.14804
5.23900, 0.15614
5.24000, 0.16605
5.24100, 0.17760
5.24200, 0.19064
5.24300, 0.20512
5.24400, 0.22097
5.24500, 0.23813
5.24600, 0.25656
5.24700, 0.27620
5.24800, 0.29698
5.24900, 0.31883
5.25000, 0.34131
5.25100, 0.36378
5.25200, 0.38558
5.25300, 0.40606
5.25400, 0.42456
5.25500, 0.44042
5.25600, 0.45300
5.25700, 0.46183
5.25800, 0.46690
5.25900, 0.46825
5.26000, 0.46597
5.26100, 0.46009
5.26200, 0.45069
5.26300, 0.43781
5.26400, 0.42154
5.26500, 0.40217
5.26600, 0.38010
5.26700, 0.35575
5.26800, 0.32956
5.26900, 0.30194
5.27000, 0.27330
5.27100, 0.24408
5.27200, 0.21480
5.27300, 0.18631
5.27400, 0.15947
5.27500, 0.13518
5.27600, 0.11429
5.27700, 0.09769
5.27800, 0.08625
5.27900, 0.08075
5.28000, 0.08086
5.28100, 0.08555
5.28200, 0.09375
5.28300, 0.10444
5.28400, 0.11655
5.28500, 0.12905
5.28600, 0.14088
5.28700, 0.15133
5.28800, 0.16046
5.28900, 0.16844
5.29000, 0.17545
5.29100, 0.18166
5.29200, 0.18726
5.29300, 0.19241
5.29400, 0.19728
5.29500, 0.20200
5.29600, 0.20664
5.29700, 0.21130
5.29800, 0.21606
5.29900, 0.22100
5.30000, 0.22621
5.30100, 0.23177
5.30200, 0.23760
5.30300, 0.24325
5.30400, 0.24820
5.30500, 0.25194
5.30600, 0.25394
5.30700, 0.25370
5.30800, 0.25071
5.30900, 0.24451
5.31000, 0.23533
5.31100, 0.22384
5.31200, 0.21070
5.31300, 0.19657
5.31400, 0.18213
5.31500, 0.16803
5.31600, 0.15494
5.31700, 0.14332
5.31800, 0.13320
5.31900, 0.12451
5.32000, 0.11720
5.32100, 0.11122
5.32200, 0.10650
5.32300, 0.10300
5.32400, 0.10067
5.32500, 0.09954
5.32600, 0.09968
5.32700, 0.10116
5.32800, 0.10407
5.32900, 0.10848
5.33000, 0.11447
5.33100, 0.12210
5.33200, 0.13130
5.33300, 0.14161
5.33400, 0.15251
5.33500, 0.16349
5.33600, 0.17405
5.33700, 0.18368
5.33800, 0.19185
5.33900, 0.19811
5.34000, 0.20235
5.34100, 0.20470
5.34200, 0.20530
5.34300, 0.20429
5.34400, 0.20180
5.34500, 0.19797
5.34600, 0.19292
5.34700, 0.18691
5.34800, 0.18038
5.34900, 0.17383
5.35000, 0.16776
5.35100, 0.16265
5.35200, 0.15901
5.35300, 0.15731
5.35400, 0.15802
5.35500, 0.16113
5.35600, 0.16636
5.35700, 0.17344
5.35800, 0.18210
5.35900, 0.19205
5.36000, 0.20303
5.36100, 0.21475
5.36200, 0.22690
5.36300, 0.23905
5.36400, 0.25077
5.36500, 0.26162
5.36600, 0.27118
5.36700, 0.27899
5.36800, 0.28464
5.36900, 0.28772
5.37000, 0.28820
5.37100, 0.28626
5.37200, 0.28208
5.37300, 0.27585
5.37400, 0.26775
5.37500, 0.25797
5.37600, 0.24668
5.37700, 0.23417
5.37800, 0.22088
5.37900, 0.20731
5.38000, 0.19393
5.38100, 0.18122
5.38200, 0.16968
5.38300, 0.15978
5.38400, 0.15196
5.38500, 0.14621
5.38600, 0.14223
5.38700, 0.13975
5.38800, 0.13847
5.38900, 0.13812
5.39000, 0.13840
5.39100, 0.13904
5.39200, 0.13978
5.39300, 0.14049
5.39400, 0.14106
5.39500, 0.14136
5.39600, 0.14126
5.39700, 0.14064
5.39800, 0.13939
5.39900, 0.13739
5.40000, 0.13478
5.40100, 0.13181
5.40200, 0.12873
5.40300, 0.12579
5.40400, 0.12326
5.40500, 0.12137
5.40600, 0.12040
5.40700, 0.12048
5.40800, 0.12154
5.40900, 0.12346
5.41000, 0.12613
5.41100, 0.12946
5.41200, 0.13332
5.41300, 0.13761
5.41400, 0.14222
5.41500, 0.14706
5.41600, 0.15206
5.41700, 0.15713
5.41800, 0.16220
5.41900, 0.16719
5.42000, 0.17202
5.42100, 0.17661
5.42200, 0.18088
5.42300, 0.18473
5.42400, 0.18805
5.42500, 0.19076
5.42600, 0.19273
5.42700, 0.19389
5.42800, 0.19411
5.42900, 0.19333
5.43000, 0.19165
5.43100, 0.18930
5.43200, 0.18649
5.43300, 0.18345
5.43400, 0.18039
5.43500, 0.17755
5.43600, 0.17514
5.43700, 0.17331
5.43800, 0.17208
5.43900, 0.17146
5.44000, 0.17144
5.44100, 0.17203
5.44200, 0.17323
5.44300, 0.17503
5.44400, 0.17742
5.44500, 0.18026
5.44600, 0.18332
5.44700, 0.18637
5.44800, 0.18920
5.44900, 0.19158
5.45000, 0.19328
5.45100, 0.19409
5.45200, 0.19404
5.45300, 0.19369
5.45400, 0.19369
5.45500, 0.19466
5.45600, 0.19723
5.45700, 0.20204
5.45800, 0.20972
5.45900, 0.22084
5.46000, 0.23528
5.46100, 0.25256
5.46200, 0.27222
5.46300, 0.29377
5.46400, 0.31674
5.46500, 0.34064
5.46600, 0.36501
5.46700, 0.38926
5.46800, 0.41260
5.46900, 0.43422
5.47000, 0.45329
5.47100, 0.46901
5.47200, 0.48055
5.47300, 0.48711
5.47400, 0.48793
5.47500, 0.48299
5.47600, 0.47262
5.47700, 0.45717
5.47800, 0.43697
5.47900, 0.41236
5.48000, 0.38369
5.48100, 0.35130
5.48200, 0.31582
5.48300, 0.27847
5.48400, 0.24052
5.48500, 0.20326
5.48600, 0.16796
5.48700, 0.13592
5.48800, 0.10840
5.48900, 0.08656
5.49000, 0.07029
5.49100, 0.05885
5.49200, 0.05147
5.49300, 0.04739
5.49400, 0.04586
5.49500, 0.04612
5.49600, 0.04741
5.49700, 0.04918
5.49800, 0.05132
5.49900, 0.05374
5.50000, 0.05636
5.50100, 0.05911
5.50200, 0.06192
5.50300, 0.06471
5.50400, 0.06743
5.50500, 0.07024
5.50600, 0.07342
5.50700, 0.07724
5.50800, 0.08200
5.50900, 0.08796
5.51000, 0.09540
5.51100, 0.10460
5.51200, 0.11560
5.51300, 0.12792
5.51400, 0.14106
5.51500, 0.15450
5.51600, 0.16771
5.51700, 0.18020
5.51800, 0.19144
5.51900, 0.20096
5.52000, 0.20876
5.52100, 0.21504
5.52200, 0.22001
5.52300, 0.22390
5.52400, 0.22692
5.52500, 0.22927
5.52600, 0.23119
5.52700, 0.23277
5.52800, 0.23398
5.52900, 0.23471
5.53000, 0.23490
5.53100, 0.23445
5.53200, 0.23330
5.53300, 0.23134
5.53400, 0.22853
5.53500, 0.22491
5.53600, 0.22059
5.53700, 0.21568
5.53800, 0.21029
5.53900, 0.20455
5.54000, 0.19855
5.54100, 0.19241
5.54200, 0.18618
5.54300, 0.17976
5.54400, 0.17304
5.54500, 0.16593
5.54600, 0.15832
5.54700, 0.15009
5.54800, 0.14116
5.54900, 0.13147
5.55000, 0.12158
5.55100, 0.11230
5.55200, 0.10448
5.55300, 0.09893
5.55400, 0.09650
5.55500, 0.09801
5.55600, 0.10430
5.55700, 0.11537
5.55800, 0.12975
5.55900, 0.14578
5.56000, 0.16182
5.56100, 0.17621
5.56200, 0.18731
5.56300, 0.19345
5.56400, 0.19323
5.56500, 0.18724
5.56600, 0.17707
5.56700, 0.16430
5.56800, 0.15052
5.56900, 0.13732
5.57000, 0.12630
5.57100, 0.11904
5.57200, 0.11634
5.57300, 0.11757
5.57400, 0.12195
5.57500, 0.12870
5.57600, 0.13702
5.57700, 0.14612
5.57800, 0.15523
5.57900, 0.16362
5.58000, 0.17103
5.58100, 0.17745
5.58200, 0.18287
5.58300, 0.18727
5.58400, 0.19064
5.58500, 0.19297
5.58600, 0.19424
5.58700, 0.19454
5.58800, 0.19419
5.58900, 0.19349
5.59000, 0.19276
5.59100, 0.19232
5.59200, 0.19249
5.59300, 0.19359
5.59400, 0.19589
5.59500, 0.19933
5.59600, 0.20372
5.59700, 0.20884
5.59800, 0.21447
5.59900, 0.22041
5.60000, 0.22643
5.60100, 0.23234
5.60200, 0.23799
5.60300, 0.24337
5.60400, 0.24850
5.60500, 0.25337
5.60600, 0.25801
5.60700, 0.26240
5.60800, 0.26658
5.60900, 0.27052
5.61000, 0.27419
5.61100, 0.27750
5.61200, 0.28037
5.61300, 0.28272
5.61400, 0.28447
5.61500, 0.28554
5.61600, 0.28585
5.61700, 0.28537
5.61800, 0.28413
5.61900, 0.28220
5.62000, 0.27961
5.62100, 0.27642
5.62200, 0.27269
5.62300, 0.26845
5.62400, 0.26376
5.62500, 0.25853
5.62600, 0.25264
5.62700, 0.24598
5.62800, 0.23841
5.62900, 0.22983
5.63000, 0.22009
5.63100, 0.20909
5.63200, 0.19690
5.63300, 0.18391
5.63400, 0.17057
5.63500, 0.15732
5.63600, 0.14460
5.63700, 0.13284
5.63800, 0.12249
5.63900, 0.11395
5.64000, 0.10729
5.64100, 0.10246
5.64200, 0.09938
5.64300, 0.09798
5.64400, 0.09821
5.64500, 0.09998
5.64600, 0.10324
5.64700, 0.10780
5.64800, 0.11323
5.64900, 0.11911
5.65000, 0.12500
5.65100, 0.13047
5.65200, 0.13508
5.65300, 0.13840
5.65400, 0.14008
5.65500, 0.14034
5.65600, 0.13967
5.65700, 0.13856
5.65800, 0.13752
5.65900, 0.13703
5.66000, 0.13759
5.66100, 0.13969
5.66200, 0.14348
5.66300, 0.14852
5.66400, 0.15430
5.66500, 0.16035
5.66600, 0.16615
5.66700, 0.17121
5.66800, 0.17504
5.66900, 0.17725
5.67000, 0.17819
5.67100, 0.17857
5.67200, 0.17909
5.67300, 0.18047
5.67400, 0.18341
5.67500, 0.18862
5.67600, 0.19679
5.67700, 0.20793
5.67800, 0.22087
5.67900, 0.23433
5.68000, 0.24701
5.68100, 0.25764
5.68200, 0.26494
5.68300, 0.26760
5.68400, 0.26457
5.68500, 0.25619
5.68600, 0.24352
5.68700, 0.22758
5.68800, 0.20939
5.68900, 0.19000
5.69000, 0.17043
5.69100, 0.15171
5.69200, 0.13452
5.69300, 0.11894
5.69400, 0.10502
5.69500, 0.09279
5.69600, 0.08228
5.69700, 0.07352
5.69800, 0.06655
5.69900, 0.06141
5.70000, 0.05822
5.70100, 0.05711
5.70200, 0.05822
5.70300, 0.06168
5.70400, 0.06764
5.70500, 0.07623
5.70600, 0.08759
5.70700, 0.10150
5.70800, 0.11717
5.70900, 0.13374
5.71000, 0.15037
5.71100, 0.16621
5.71200, 0.18042
5.71300, 0.19214
5.71400, 0.20063
5.71500, 0.20593
5.71600, 0.20843
5.71700, 0.20850
5.71800, 0.20653
5.71900, 0.20288
5.72000, 0.19794
5.72100, 0.19208
5.72200, 0.18570
5.72300, 0.17916
5.72400, 0.17284
5.72500, 0.16712
5.72600, 0.16238
5.72700, 0.15900
5.72800, 0.15734
5.72900, 0.15774
5.73000, 0.16005
5.73100, 0.16396
5.73200, 0.16915
5.73300, 0.17529
5.73400, 0.18206
5.73500, 0.18915
5.73600, 0.19623
5.73700, 0.20305
5.73800, 0.20946
5.73900, 0.21532
5.74000, 0.22048
5.74100, 0.22482
5.74200, 0.22819
5.74300, 0.23046
5.74400, 0.23150
5.74500, 0.23134
5.74600, 0.23008
5.74700, 0.22782
5.74800, 0.22464
5.74900, 0.22064
5.75000, 0.21592
5.75100, 0.21057
5.75200, 0.20486
5.75300, 0.19930
5.75400, 0.19445
5.75500, 0.19085
5.75600, 0.18905
5.75700, 0.18961
5.75800, 0.19306
5.75900, 0.19979
5.76000, 0.20903
5.76100, 0.21955
5.76200, 0.23011
5.76300, 0.23947
5.76400, 0.24639
5.76500, 0.24962
5.76600, 0.24795
5.76700, 0.24106
5.76800, 0.23012
5.76900, 0.21638
5.77000, 0.20112
5.77100, 0.18563
5.77200, 0.17116
5.77300, 0.15900
5.77400, 0.15025
5.77500, 0.14491
5.77600, 0.14254
5.77700, 0.14267
5.77800, 0.14486
5.77900, 0.14864
5.78000, 0.15356
5.78100, 0.15918
5.78200, 0.16511
5.78300, 0.17110
5.78400, 0.17692
5.78500, 0.18233
5.78600, 0.18708
5.78700, 0.19094
5.78800, 0.19367
5.78900, 0.19506
5.79000, 0.19513
5.79100, 0.19397
5.79200, 0.19171
5.79300, 0.18844
5.79400, 0.18427
5.79500, 0.17930
5.79600, 0.17365
5.79700, 0.16740
5.79800, 0.16064
5.79900, 0.15344
5.80000, 0.14588
5.80100, 0.13804
5.80200, 0.13000
5.80300, 0.12183
5.80400, 0.11365
5.80500, 0.10574
5.80600, 0.09847
5.80700, 0.09221
5.80800, 0.08732
5.80900, 0.08417
5.81000, 0.08314
5.81100, 0.08457
5.81200, 0.08851
5.81300, 0.09449
5.81400, 0.10202
5.81500, 0.11060
5.81600, 0.11972
5.81700, 0.12889
5.81800, 0.13761
5.81900, 0.14540
5.82000, 0.15200
5.82100, 0.15720
5.82200, 0.16081
5.82300, 0.16263
5.82400, 0.16245
5.82500, 0.16008
5.82600, 0.15533
5.82700, 0.14827
5.82800, 0.13937
5.82900, 0.12916
5.83000, 0.11813
5.83100, 0.10680
5.83200, 0.09567
5.83300, 0.08525
5.83400, 0.07604
5.83500, 0.06834
5.83600, 0.06241
5.83700, 0.05850
5.83800, 0.05686
5.83900, 0.05776
5.84000, 0.06143
5.84100, 0.06813
5.84200, 0.07772
5.84300, 0.08951
5.84400, 0.10277
5.84500, 0.11675
5.84600, 0.13073
5.84700, 0.14396
5.84800, 0.15571
5.84900, 0.16536
5.85000, 0.17297
5.85100, 0.17888
5.85200, 0.18344
5.85300, 0.18699
5.85400, 0.18985
5.85500, 0.19239
5.85600, 0.19492
5.85700, 0.19751
5.85800, 0.19984
5.85900, 0.20153
5.86000, 0.20224
5.86100, 0.20159
5.86200, 0.19924
5.86300, 0.19481
5.86400, 0.18807
5.86500, 0.17957
5.86600, 0.17016
5.86700, 0.16067
5.86800, 0.15195
5.86900, 0.14484
5.87000, 0.14019
5.87100, 0.13882
5.87200, 0.14099
5.87300, 0.14610
5.87400, 0.15349
5.87500, 0.16250
5.87600, 0.17248
5.87700, 0.18277
5.87800, 0.19271
5.87900, 0.20170
5.88000, 0.20956
5.88100, 0.21625
5.88200, 0.22172
5.88300, 0.22593
5.88400, 0.22885
5.88500, 0.23044
5.88600, 0.23065
5.88700, 0.22948
5.88800, 0.22695
5.88900, 0.22310
5.89000, 0.21797
5.89100, 0.21160
5.89200, 0.20400
5.89300, 0.19523
5.89400, 0.18539
5.89500, 0.17501
5.89600, 0.16476
5.89700, 0.15534
5.89800, 0.14743
5.89900, 0.14172
5.90000, 0.13889
5.90100, 0.13961
5.90200, 0.14390
5.90300, 0.15090
5.90400, 0.15965
5.90500, 0.16922
5.90600, 0.17867
5.90700, 0.18703
5.90800, 0.19338
5.90900, 0.19693
5.91000, 0.19781
5.91100, 0.19651
5.91200, 0.19348
5.91300, 0.18922
5.91400, 0.18420
5.91500, 0.17888
5.91600, 0.17375
5.91700, 0.16912
5.91800, 0.16509
5.91900, 0.16176
5.92000, 0.15921
5.92100, 0.15753
5.92200, 0.15681
5.92300, 0.15714
5.92400, 0.15856
5.92500, 0.16087
5.92600, 0.16374
5.92700, 0.16688
5.92800, 0.16997
5.92900, 0.17271
5.93000, 0.17480
5.93100, 0.17592
5.93200, 0.17595
5.93300, 0.17494
5.93400, 0.17301
5.93500, 0.17024
5.93600, 0.16673
5.93700, 0.16256
5.93800, 0.15784
5.93900, 0.15267
5.94000, 0.14723
5.94100, 0.14169
5.94200, 0.13626
5.94300, 0.13113
5.94400, 0.12649
5.94500, 0.12253
5.94600, 0.11945
5.94700, 0.11732
5.94800, 0.11607
5.94900, 0.11563
5.95000, 0.11591
5.95100, 0.11683
5.95200, 0.11831
5.95300, 0.12027
5.95400, 0.12262
5.95500, 0.12525
5.95600, 0.12802
5.95700, 0.13080
5.95800, 0.13346
5.95900, 0.13586
5.96000, 0.13789
5.96100, 0.13942
5.96200, 0.14050
5.96300, 0.14147
5.96400, 0.14266
5.96500, 0.14442
5.96600, 0.14710
5.96700, 0.15103
5.96800, 0.15655
5.96900, 0.16392
5.97000, 0.17286
5.97100, 0.18292
5.97200, 0.19363
5.97300, 0.20456
5.97400, 0.21524
5.97500, 0.22522
5.97600, 0.23406
5.97700, 0.24144
5.97800, 0.24726
5.97900, 0.25142
5.98000, 0.25383
5.98100, 0.25439
5.98200, 0.25300
5.98300, 0.24958
5.98400, 0.24406
5.98500, 0.23668
5.98600, 0.22775
5.98700, 0.21759
5.98800, 0.20650
5.98900, 0.19481
5.99000, 0.18283
5.99100, 0.17088
5.99200, 0.15930
5.99300, 0.14850
5.99400, 0.13889
5.99500, 0.13088
5.99600, 0.12486
5.99700, 0.12124
5.99800, 0.12043
5.99900, 0.12271
6.00000, 0.12768
6.00100, 0.13470
6.00200, 0.14315
6.00300, 0.15240
6.00400, 0.16181
6.00500, 0.17077
6.00600, 0.17864
6.00700, 0.18508
6.00800, 0.19008
6.00900, 0.19367
6.01000, 0.19585
6.01100, 0.19667
6.01200, 0.19612
6.01300, 0.19424
6.01400, 0.19104
6.01500, 0.18656
6.01600, 0.18080
6.01700, 0.17381
6.01800, 0.16561
6.01900, 0.15621
6.02000, 0.14566
6.02100, 0.13398
6.02200, 0.12147
6.02300, 0.10877
6.02400, 0.09655
6.02500, 0.08545
6.02600, 0.07615
6.02700, 0.06930
6.02800, 0.06557
6.02900, 0.06539
6.03000, 0.06804
6.03100, 0.07243
6.03200, 0.07744
6.03300, 0.08199
6.03400, 0.08497
6.03500, 0.08528
6.03600, 0.08185
6.03700, 0.07467
6.03800, 0.06503
6.03900, 0.05433
6.04000, 0.04394
6.04100, 0.03525
6.04200, 0.02965
6.04300, 0.02852
6.04400, 0.03291
6.04500, 0.04207
6.04600, 0.05471
6.04700, 0.06953
6.04800, 0.08521
6.04900, 0.10046
6.05000, 0.11398
6.05100, 0.12447
6.05200, 0.13152
6.05300, 0.13576
6.05400, 0.13786
6.05500, 0.13853
6.05600, 0.13844
6.05700, 0.13831
6.05800, 0.13880
6.05900, 0.14054
6.06000, 0.14370
6.06100, 0.14832
6.06200, 0.15445
6.06300, 0.16213
6.06400, 0.17142
6.06500, 0.18234
6.06600, 0.19494
6.06700, 0.20882
6.06800, 0.22309
6.06900, 0.23680
6.07000, 0.24904
6.07100, 0.25886
6.07200, 0.26532
6.07300, 0.26751
6.07400, 0.26468
6.07500, 0.25714
6.07600, 0.24550
6.07700, 0.23037
6.07800, 0.21238
6.07900, 0.19214
6.08000, 0.17027
6.08100, 0.14737
6.08200, 0.12383
6.08300, 0.09978
6.08400, 0.07531
6.08500, 0.05052
6.08600, 0.02553
6.08700, 0.00042
6.08800, -0.02469
6.08900, -0.04964
6.09000, -0.07393
6.09100, -0.09697
6.09200, -0.11816
6.09300, -0.13691
6.09400, -0.15262
6.09500, -0.16470
6.09600, -0.17257
6.09700, -0.17602
6.09800, -0.17531
6.09900, -0.17074
6.10000, -0.16258
6.10100, -0.15113
6.10200, -0.13667
6.10300, -0.11948
6.10400, -0.09976
6.10500, -0.07720
6.10600, -0.05136
6.10700, -0.02179
6.10800, 0.01194
6.10900, 0.05030
6.11000, 0.09371
6.11100, 0.14258
6.11200, 0.19599
6.11300, 0.25143
6.11400, 0.30631
6.11500, 0.35803
6.11600, 0.40400
6.11700, 0.44163
6.11800, 0.46833
6.11900, 0.48219
6.12000, 0.48457
6.12100, 0.47781
6.12200, 0.46426
6.12300, 0.44624
6.12400, 0.42611
6.12500, 0.40620
6.12600, 0.38880
6.12700, 0.37447
6.12800, 0.36179
6.12900, 0.34922
6.13000, 0.33522
6.13100, 0.31824
6.13200, 0.29675
6.13300, 0.26921
6.13400, 0.23464
6.13500, 0.19476
6.13600, 0.15209
6.13700, 0.10914
6.13800, 0.06843
6.13900, 0.03247
6.14000, 0.00377
6.14100, -0.01522
6.14200, -0.02406
6.14300, -0.02459
6.14400, -0.01879
6.14500, -0.00863
6.14600, 0.00390
6.14700, 0.01683
6.14800, 0.02818
6.14900, 0.03636
6.15000, 0.04153
6.15100, 0.04439
6.15200, 0.04562
6.15300, 0.04590
6.15400, 0.04592
6.15500, 0.04637
6.15600, 0.04791
6.15700, 0.05081
6.15800, 0.05484
6.15900, 0.05977
6.16000, 0.06534
6.16100, 0.07131
6.16200, 0.07745
6.16300, 0.08351
6.16400, 0.08940
6.16500, 0.09572
6.16600, 0.10329
6.16700, 0.11292
6.16800, 0.12541
6.16900, 0.14158
6.17000, 0.16223
6.17100, 0.18813
6.17200, 0.21868
6.17300, 0.25174
6.17400, 0.28510
6.17500, 0.31656
6.17600, 0.34390
6.17700, 0.36491
6.17800, 0.37739
6.17900, 0.37972
6.18000, 0.37306
6.18100, 0.35930
6.18200, 0.34036
6.18300, 0.31815
6.18400, 0.29460
6.18500, 0.27161
6.18600, 0.25105
6.18700, 0.23361
6.18800, 0.21868
6.18900, 0.20558
6.19000, 0.19362
6.19100, 0.18211
6.19200, 0.17038
6.19300, 0.15774
6.19400, 0.14377
6.19500, 0.12917
6.19600, 0.11498
6.19700, 0.10221
6.19800, 0.09191
6.19900, 0.08510
6.20000, 0.08280
6.20100, 0.08601
6.20200, 0.09455
6.20300, 0.10699
6.20400, 0.12185
6.20500, 0.13761
6.20600, 0.15278
6.20700, 0.16588
6.20800, 0.17540
6.20900, 0.18019
6.21000, 0.18061
6.21100, 0.17743
6.21200, 0.17141
6.21300, 0.16333
6.21400, 0.15396
6.21500, 0.14407
6.21600, 0.13442
6.21700, 0.12553
6.21800, 0.11765
6.21900, 0.11104
6.22000, 0.10593
6.22100, 0.10258
6.22200, 0.10121
6.22300, 0.10209
6.22400, 0.10535
6.22500, 0.11067
6.22600, 0.11761
6.22700, 0.12573
6.22800, 0.13459
6.22900, 0.14374
6.23000, 0.15274
6.23100, 0.16117
6.23200, 0.16890
6.23300, 0.17612
6.23400, 0.18305
6.23500, 0.18991
6.23600, 0.19691
6.23700, 0.20426
6.23800, 0.21218
6.23900, 0.22083
6.24000, 0.23012
6.24100, 0.23989
6.24200, 0.24998
6.24300, 0.26025
6.24400, 0.27053
6.24500, 0.28068
6.24600, 0.29052
6.24700, 0.29981
6.24800, 0.30816
6.24900, 0.31519
6.25000, 0.32054
6.25100, 0.32381
6.25200, 0.32464
6.25300, 0.32264
6.25400, 0.31760
6.25500, 0.30995
6.25600, 0.30033
6.25700, 0.28936
6.25800, 0.27765
6.25900, 0.26583
6.26000, 0.25452
6.26100, 0.24433
6.26200, 0.23544
6.26300, 0.22759
6.26400, 0.22049
6.26500, 0.21388
6.26600, 0.20746
6.26700, 0.20095
6.26800, 0.19409
6.26900, 0.18666
6.27000, 0.17882
6.27100, 0.17080
6.27200, 0.16285
6.27300, 0.15520
6.27400, 0.14809
6.27500, 0.14175
6.27600, 0.13641
6.27700, 0.13214
6.27800, 0.12877
6.27900, 0.12618
6.28000, 0.12420
6.28100, 0.12270
6.28200, 0.12152
6.28300, 0.12053
6.28400, 0.11964
6.28500, 0.11914
6.28600, 0.11936
6.28700, 0.12067
6.28800, 0.12341
6.28900, 0.12793
6.29000, 0.13460
6.29100, 0.14372
6.29200, 0.15499
6.29300, 0.16743
6.29400, 0.18005
6.29500, 0.19185
6.29600, 0.20184
6.29700, 0.20901
6.29800, 0.21236
6.29900, 0.21115
6.30000, 0.20563
6.30100, 0.19630
6.30200, 0.18365
6.30300, 0.16819
6.30400, 0.15042
6.30500, 0.13085
6.30600, 0.10998
6.30700, 0.08874
6.30800, 0.06847
6.30900, 0.05050
6.31000, 0.03620
6.31100, 0.02689
6.31200, 0.02394
6.31300, 0.02869
6.31400, 0.04197
6.31500, 0.06258
6.31600, 0.08883
6.31700, 0.11899
6.31800, 0.15138
6.31900, 0.18428
6.32000, 0.21598
6.32100, 0.24483
6.32200, 0.27009
6.32300, 0.29198
6.32400, 0.31074
6.32500, 0.32661
6.32600, 0.33984
6.32700, 0.35068
6.32800, 0.35937
6.32900, 0.36614
6.33000, 0.37122
6.33100, 0.37479
6.33200, 0.37706
6.33300, 0.37823
6.33400, 0.37851
6.33500, 0.37809
6.33600, 0.37715
6.33700, 0.37540
6.33800, 0.37207
6.33900, 0.36635
6.34000, 0.35747
6.34100, 0.34463
6.34200, 0.32705
6.34300, 0.30392
6.34400, 0.27479
6.34500, 0.24049
6.34600, 0.20214
6.34700, 0.16087
6.34800, 0.11781
6.34900, 0.07409
6.35000, 0.03083
6.35100, -0.01084
6.35200, -0.05028
6.35300, -0.08728
6.35400, -0.12164
6.35500, -0.15317
6.35600, -0.18167
6.35700, -0.20695
6.35800, -0.22882
6.35900, -0.24703
6.36000, -0.26118
6.36100, -0.27083
6.36200, -0.27552
6.36300, -0.27482
6.36400, -0.26827
6.36500, -0.25543
6.36600, -0.23589
6.36700, -0.21019
6.36800, -0.17975
6.36900, -0.14603
6.37000, -0.11048
6.37100, -0.07456
6.37200, -0.03972
6.37300, -0.00743
6.37400, 0.02142
6.37500, 0.04806
6.37600, 0.07421
6.37700, 0.10158
6.37800, 0.13190
6.37900, 0.16689
6.38000, 0.20826
6.38100, 0.25762
6.38200, 0.31421
6.38300, 0.37506
6.38400, 0.43709
6.38500, 0.49723
6.38600, 0.55241
6.38700, 0.59956
6.38800, 0.63561
6.38900, 0.65849
6.39000, 0.66979
6.39100, 0.67197
6.39200, 0.66749
6.39300, 0.65878
6.39400, 0.64831
6.39500, 0.63853
6.39600, 0.63180
6.39700, 0.62849
6.39800, 0.62718
6.39900, 0.62635
6.40000, 0.62448
6.40100, 0.62008
6.40200, 0.61162
6.40300, 0.59760
6.40400, 0.57705
6.40500, 0.55102
6.40600, 0.52100
6.40700, 0.48849
6.40800, 0.45500
6.40900, 0.42202
6.41000, 0.39105
6.41100, 0.36351
6.41200, 0.33912
6.41300, 0.31607
6.41400, 0.29250
6.41500, 0.26654
6.41600, 0.23630
6.41700, 0.19993
6.41800, 0.15555
6.41900, 0.10220
6.42000, 0.04220
6.42100, -0.02140
6.42200, -0.08554
6.42300, -0.14718
6.42400, -0.20325
6.42500, -0.25071
6.42600, -0.28663
6.42700, -0.31052
6.42800, -0.32413
6.42900, -0.32927
6.43000, -0.32776
6.43100, -0.32143
6.43200, -0.31208
6.43300, -0.30155
6.43400, -0.29114
6.43500, -0.28031
6.43600, -0.26815
6.43700, -0.25373
6.43800, -0.23612
6.43900, -0.21438
6.44000, -0.18759
6.44100, -0.15489
6.44200, -0.11669
6.44300, -0.07452
6.44400, -0.02997
6.44500, 0.01539
6.44600, 0.05997
6.44700, 0.10220
6.44800, 0.14049
6.44900, 0.17359
6.45000, 0.20141
6.45100, 0.22413
6.45200, 0.24189
6.45300, 0.25487
6.45400, 0.26323
6.45500, 0.26713
6.45600, 0.26677
6.45700, 0.26301
6.45800, 0.25726
6.45900, 0.25099
6.46000, 0.24563
6.46100, 0.24264
6.46200, 0.24346
6.46300, 0.24955
6.46400, 0.26181
6.46500, 0.27929
6.46600, 0.30065
6.46700, 0.32454
6.46800, 0.34961
6.46900, 0.37452
6.47000, 0.39790
6.47100, 0.41845
6.47200, 0.43544
6.47300, 0.44864
6.47400, 0.45784
6.47500, 0.46284
6.47600, 0.46343
6.47700, 0.45941
6.47800, 0.45056
6.47900, 0.43669
6.48000, 0.41757
6.48100, 0.39300
6.48200, 0.36277
6.48300, 0.32666
6.48400, 0.28446
6.48500, 0.23596
6.48600, 0.18103
6.48700, 0.12121
6.48800, 0.05942
6.48900, -0.00134
6.49000, -0.05811
6.49100, -0.10789
6.49200, -0.14770
6.49300, -0.17455
6.49400, -0.18662
6.49500, -0.18593
6.49600, -0.17530
6.49700, -0.15757
6.49800, -0.13556
6.49900, -0.11211
6.50000, -0.09006
6.50100, -0.07211
6.50200, -0.05899
6.50300, -0.04975
6.50400, -0.04337
6.50500, -0.03882
6.50600, -0.03510
6.50700, -0.03118
6.50800, -0.02605
6.50900, -0.01893
6.51000, -0.00986
6.51100, 0.00099
6.51200, 0.01341
6.51300, 0.02722
6.51400, 0.04221
6.51500, 0.05821
6.51600, 0.07501
6.51700, 0.09255
6.51800, 0.11083
6.51900, 0.12987
6.52000, 0.14968
6.52100, 0.17029
6.52200, 0.19169
6.52300, 0.21391
6.52400, 0.23693
6.52500, 0.26065
6.52600, 0.28493
6.52700, 0.30966
6.52800, 0.33470
6.52900, 0.35993
6.53000, 0.38521
6.53100, 0.41040
6.53200, 0.43485
6.53300, 0.45748
6.53400, 0.47723
6.53500, 0.49301
6.53600, 0.50375
6.53700, 0.50838
6.53800, 0.50582
6.53900, 0.49558
6.54000, 0.47911
6.54100, 0.45821
6.54200, 0.43470
6.54300, 0.41040
6.54400, 0.38713
6.54500, 0.36669
6.54600, 0.35080
6.54700, 0.33929
6.54800, 0.33046
6.54900, 0.32257
6.55000, 0.31388
6.55100, 0.30263
6.55200, 0.28710
6.55300, 0.26554
6.55400, 0.23709
6.55500, 0.20375
6.55600, 0.16804
6.55700, 0.13251
6.55800, 0.09970
6.55900, 0.07215
6.56000, 0.05240
6.56100, 0.04286
6.56200, 0.04390
6.56300, 0.05420
6.56400, 0.07240
6.56500, 0.09715
6.56600, 0.12708
6.56700, 0.16083
6.56800, 0.19705
6.56900, 0.23427
6.57000, 0.27076
6.57100, 0.30469
6.57200, 0.33426
6.57300, 0.35765
6.57400, 0.37306
6.57500, 0.37867
6.57600, 0.37281
6.57700, 0.35616
6.57800, 0.33125
6.57900, 0.30068
6.58000, 0.26702
6.58100, 0.23288
6.58200, 0.20084
6.58300, 0.17349
6.58400, 0.15283
6.58500, 0.13903
6.58600, 0.13191
6.58700, 0.13129
6.58800, 0.13699
6.58900, 0.14883
6.59000, 0.16664
6.59100, 0.19018
6.59200, 0.21846
6.59300, 0.24990
6.59400, 0.28287
6.59500, 0.31577
6.59600, 0.34699
6.59700, 0.37491
6.59800, 0.39793
6.59900, 0.41474
6.60000, 0.42500
6.60100, 0.42852
6.60200, 0.42512
6.60300, 0.41464
6.60400, 0.39689
6.60500, 0.37170
6.60600, 0.33896
6.60700, 0.29961
6.60800, 0.25544
6.60900, 0.20823
6.61000, 0.15978
6.61100, 0.11187
6.61200, 0.06632
6.61300, 0.02490
6.61400, -0.01097
6.61500, -0.04101
6.61600, -0.06516
6.61700, -0.08337
6.61800, -0.09556
6.61900, -0.10167
6.62000, -0.10165
6.62100, -0.09549
6.62200, -0.08386
6.62300, -0.06803
6.62400, -0.04923
6.62500, -0.02874
6.62600, -0.00780
6.62700, 0.01232
6.62800, 0.03038
6.62900, 0.04545
6.63000, 0.05760
6.63100, 0.06709
6.63200, 0.07419
6.63300, 0.07913
6.63400, 0.08219
6.63500, 0.08361
6.63600, 0.08367
6.63700, 0.08275
6.63800, 0.08134
6.63900, 0.07994
6.64000, 0.07904
6.64100, 0.07913
6.64200, 0.08071
6.64300, 0.08427
6.64400, 0.09015
6.64500, 0.09831
6.64600, 0.10860
6.64700, 0.12089
6.64800, 0.13504
6.64900, 0.15092
6.65000, 0.16839
6.65100, 0.18726
6.65200, 0.20660
6.65300, 0.22490
6.65400, 0.24064
6.65500, 0.25229
6.65600, 0.25834
6.65700, 0.25727
6.65800, 0.24755
6.65900, 0.22860
6.66000, 0.20250
6.66100, 0.17179
6.66200, 0.13905
6.66300, 0.10681
6.66400, 0.07764
6.66500, 0.05409
6.66600, 0.03862
6.66700, 0.03225
6.66800, 0.03493
6.66900, 0.04658
6.67000, 0.06714
6.67100, 0.09652
6.67200, 0.13466
6.67300, 0.18149
6.67400, 0.23612
6.67500, 0.29539
6.67600, 0.35571
6.67700, 0.41353
6.67800, 0.46527
6.67900, 0.50736
6.68000, 0.53623
6.68100, 0.54853
6.68200, 0.54425
6.68300, 0.52578
6.68400, 0.49555
6.68500, 0.45604
6.68600, 0.40967
6.68700, 0.35890
6.68800, 0.30618
6.68900, 0.25375
6.69000, 0.20323
6.69100, 0.15615
6.69200, 0.11403
6.69300, 0.07839
6.69400, 0.05078
6.69500, 0.03270
6.69600, 0.02556
6.69700, 0.02900
6.69800, 0.04139
6.69900, 0.06107
6.70000, 0.08640
6.70100, 0.11571
6.70200, 0.14735
6.70300, 0.17966
6.70400, 0.21106
6.70500, 0.24024
6.70600, 0.26588
6.70700, 0.28670
6.70800, 0.30139
6.70900, 0.30867
6.71000, 0.30723
6.71100, 0.29596
6.71200, 0.27607
6.71300, 0.25043
6.71400, 0.22196
6.71500, 0.19358
6.71600, 0.16820
6.71700, 0.14874
6.71800, 0.13811
6.71900, 0.13805
6.72000, 0.14710
6.72100, 0.16326
6.72200, 0.18454
6.72300, 0.20892
6.72400, 0.23443
6.72500, 0.25904
6.72600, 0.28085
6.72700, 0.29897
6.72800, 0.31322
6.72900, 0.32346
6.73000, 0.32954
6.73100, 0.33131
6.73200, 0.32862
6.73300, 0.32132
6.73400, 0.30949
6.73500, 0.29380
6.73600, 0.27499
6.73700, 0.25385
6.73800, 0.23114
6.73900, 0.20761
6.74000, 0.18404
6.74100, 0.16119
6.74200, 0.13981
6.74300, 0.12066
6.74400, 0.10449
6.74500, 0.09205
6.74600, 0.08409
6.74700, 0.08137
6.74800, 0.08462
6.74900, 0.09421
6.75000, 0.10941
6.75100, 0.12933
6.75200, 0.15308
6.75300, 0.17975
6.75400, 0.20846
6.75500, 0.23831
6.75600, 0.26841
6.75700, 0.29788
6.75800, 0.32587
6.75900, 0.35150
6.76000, 0.37392
6.76100, 0.39227
6.76200, 0.40568
6.76300, 0.41330
6.76400, 0.41459
6.76500, 0.40992
6.76600, 0.39978
6.76700, 0.38467
6.76800, 0.36509
6.76900, 0.34153
6.77000, 0.31450
6.77100, 0.28455
6.77200, 0.25306
6.77300, 0.22194
6.77400, 0.19313
6.77500, 0.16856
6.77600, 0.15015
6.77700, 0.13984
6.77800, 0.13956
6.77900, 0.14993
6.78000, 0.16827
6.78100, 0.19135
6.78200, 0.21595
6.78300, 0.23883
6.78400, 0.25678
6.78500, 0.26657
6.78600, 0.26521
6.78700, 0.25255
6.78800, 0.23039
6.78900, 0.20054
6.79000, 0.16481
6.79100, 0.12503
6.79200, 0.08300
6.79300, 0.04056
6.79400, -0.00059
6.79500, -0.03895
6.79600, -0.07307
6.79700, -0.10152
6.79800, -0.12284
6.79900, -0.13558
6.80000, -0.13829
6.80100, -0.12969
6.80200, -0.11036
6.80300, -0.08213
6.80400, -0.04687
6.80500, -0.00641
6.80600, 0.03738
6.80700, 0.08265
6.80800, 0.12754
6.80900, 0.17026
6.81000, 0.20917
6.81100, 0.24267
6.81200, 0.26914
6.81300, 0.28697
6.81400, 0.29455
6.81500, 0.29027
6.81600, 0.27278
6.81700, 0.24385
6.81800, 0.20730
6.81900, 0.16700
6.82000, 0.12678
6.82100, 0.09052
6.82200, 0.06206
6.82300, 0.04525
6.82400, 0.04242
6.82500, 0.05210
6.82600, 0.07225
6.82700, 0.10082
6.82800, 0.13577
6.82900, 0.17507
6.83000, 0.21667
6.83100, 0.25856
6.83200, 0.29906
6.83300, 0.33675
6.83400, 0.37017
6.83500, 0.39788
6.83600, 0.41844
6.83700, 0.43041
6.83800, 0.43236
6.83900, 0.42376
6.84000, 0.40633
6.84100, 0.38212
6.84200, 0.35319
6.84300, 0.32159
6.84400, 0.28937
6.84500, 0.25858
6.84600, 0.23117
6.84700, 0.20776
6.84800, 0.18812
6.84900, 0.17202
6.85000, 0.15922
6.85100, 0.14950
6.85200, 0.14261
6.85300, 0.13832
6.85400, 0.13631
6.85500, 0.13601
6.85600, 0.13683
6.85700, 0.13818
6.85800, 0.13947
6.85900, 0.14009
6.86000, 0.13946
6.86100, 0.13706
6.86200, 0.13315
6.86300, 0.12850
6.86400, 0.12389
6.86500, 0.12010
6.86600, 0.11790
6.86700, 0.11806
6.86800, 0.12137
6.86900, 0.12813
6.87000, 0.13757
6.87100, 0.14873
6.87200, 0.16068
6.87300, 0.17247
6.87400, 0.18316
6.87500, 0.19181
6.87600, 0.19755
6.87700, 0.20026
6.87800, 0.20032
6.87900, 0.19812
6.88000, 0.19403
6.88100, 0.18843
6.88200, 0.18170
6.88300, 0.17423
6.88400, 0.16663
6.88500, 0.16007
6.88600, 0.15581
6.88700, 0.15510
6.88800, 0.15919
6.88900, 0.16933
6.89000, 0.18678
6.89100, 0.21256
6.89200, 0.24519
6.89300, 0.28166
6.89400, 0.31893
6.89500, 0.35396
6.89600, 0.38373
6.89700, 0.40520
6.89800, 0.41532
6.89900, 0.41232
6.90000, 0.39727
6.90100, 0.37163
6.90200, 0.33690
6.90300, 0.29454
6.90400, 0.24604
6.90500, 0.19286
6.90600, 0.13647
6.90700, 0.07813
6.90800, 0.01897
6.90900, -0.03986
6.91000, -0.09722
6.91100, -0.15199
6.91200, -0.20301
6.91300, -0.24917
6.91400, -0.28970
6.91500, -0.32477
6.91600, -0.35464
6.91700, -0.37959
6.91800, -0.39991
6.91900, -0.41585
6.92000, -0.42771
6.92100, -0.43576
6.92200, -0.44047
6.92300, -0.44239
6.92400, -0.44209
6.92500, -0.44013
6.92600, -0.43707
6.92700, -0.43346
6.92800, -0.42988
6.92900, -0.42654
6.93000, -0.42295
6.93100, -0.41852
6.93200, -0.41264
6.93300, -0.40472
6.93400, -0.39415
6.93500, -0.38033
6.93600, -0.36269
6.93700, -0.34085
6.93800, -0.31455
6.93900, -0.28354
6.94000, -0.24756
6.94100, -0.20635
6.94200, -0.15967
6.94300, -0.10725
6.94400, -0.04976
6.94500, 0.01016
6.94600, 0.06956
6.94700, 0.12554
6.94800, 0.17515
6.94900, 0.21546
6.95000, 0.24356
6.95100, 0.25685
6.95200, 0.25633
6.95300, 0.24506
6.95400, 0.22613
6.95500, 0.20262
6.95600, 0.17764
6.95700, 0.15426
6.95800, 0.13557
6.95900, 0.12362
6.96000, 0.11816
6.96100, 0.11867
6.96200, 0.12459
6.96300, 0.13540
6.96400, 0.15053
6.96500, 0.16947
6.96600, 0.19159
6.96700, 0.21560
6.96800, 0.23977
6.96900, 0.26241
6.97000, 0.28179
6.97100, 0.29621
6.97200, 0.30395
6.97300, 0.30330
6.97400, 0.29360
6.97500, 0.27646
6.97600, 0.25378
6.97700, 0.22746
6.97800, 0.19939
6.97900, 0.17149
6.98000, 0.14565
6.98100, 0.12365
6.98200, 0.10605
6.98300, 0.09272
6.98400, 0.08353
6.98500, 0.07833
6.98600, 0.07700
6.98700, 0.07939
6.98800, 0.08537
6.98900, 0.09466
6.99000, 0.10675
6.99100, 0.12106
6.99200, 0.13702
6.99300, 0.15406
6.99400, 0.17163
6.99500, 0.18914
6.99600, 0.20605
6.99700, 0.22184
6.99800, 0.23605
6.99900, 0.24821
7.00000, 0.25785
7.00100, 0.26450
7.00200, 0.26769
7.00300, 0.26695
7.00400, 0.26214
7.00500, 0.25379
7.00600, 0.24251
7.00700, 0.22890
7.00800, 0.21359
7.00900, 0.19719
7.01000, 0.18031
7.01100, 0.16355
7.01200, 0.14735
7.01300, 0.13210
7.01400, 0.11816
7.01500, 0.10590
7.01600, 0.09569
7.01700, 0.08791
7.01800, 0.08292
7.01900, 0.08106
7.02000, 0.08261
7.02100, 0.08780
7.02200, 0.09691
7.02300, 0.11020
7.02400, 0.12791
7.02500, 0.15031
7.02600, 0.17750
7.02700, 0.20810
7.02800, 0.23995
